,ECG_1,ECG_2,Time_Adjusted
0,-0.145,-0.065,0.0
1,,,0.002777777777777778
2,,,0.005555555555555556
3,,,0.008333333333333333
4,,,0.011111111111111112
5,,,0.013888888888888888
6,,,0.016666666666666666
7,,,0.019444444444444445
8,,,0.022222222222222223
9,,,0.025
10,,,0.027777777777777776
11,,,0.030555555555555555
12,,,0.03333333333333333
13,,,0.03611111111111111
14,,,0.03888888888888889
15,,,0.041666666666666664
16,,,0.044444444444444446
17,,,0.04722222222222222
18,,,0.05
19,,,0.05277777777777778
20,,,0.05555555555555555
21,,,0.058333333333333334
22,,,0.06111111111111111
23,,,0.06388888888888888
24,,,0.06666666666666667
25,,,0.06944444444444445
26,,,0.07222222222222222
27,,,0.075
28,,,0.07777777777777778
29,,,0.08055555555555556
30,,,0.08333333333333333
31,,,0.08611111111111111
32,,,0.08888888888888889
33,,,0.09166666666666666
34,,,0.09444444444444444
35,,,0.09722222222222222
36,,,0.1
37,,,0.10277777777777777
38,,,0.10555555555555556
39,,,0.10833333333333334
40,,,0.1111111111111111
41,,,0.11388888888888889
42,,,0.11666666666666667
43,,,0.11944444444444445
44,,,0.12222222222222222
45,,,0.125
46,,,0.12777777777777777
47,,,0.13055555555555556
48,,,0.13333333333333333
49,,,0.1361111111111111
50,,,0.1388888888888889
51,,,0.14166666666666666
52,,,0.14444444444444443
53,,,0.14722222222222223
54,,,0.15
55,,,0.1527777777777778
56,,,0.15555555555555556
57,,,0.15833333333333333
58,,,0.16111111111111112
59,,,0.1638888888888889
60,,,0.16666666666666666
61,,,0.16944444444444445
62,,,0.17222222222222222
63,,,0.175
64,,,0.17777777777777778
65,,,0.18055555555555555
66,,,0.18333333333333332
67,,,0.18611111111111112
68,,,0.18888888888888888
69,,,0.19166666666666668
70,,,0.19444444444444445
71,,,0.19722222222222222
72,,,0.2
73,,,0.20277777777777778
74,,,0.20555555555555555
75,,,0.20833333333333334
76,,,0.2111111111111111
77,,,0.21388888888888888
78,,,0.21666666666666667
79,,,0.21944444444444444
80,,,0.2222222222222222
81,,,0.225
82,,,0.22777777777777777
83,,,0.23055555555555557
84,,,0.23333333333333334
85,,,0.2361111111111111
86,,,0.2388888888888889
87,,,0.24166666666666667
88,,,0.24444444444444444
89,,,0.24722222222222223
90,,,0.25
91,,,0.25277777777777777
92,,,0.25555555555555554
93,,,0.25833333333333336
94,,,0.2611111111111111
95,,,0.2638888888888889
96,,,0.26666666666666666
97,,,0.26944444444444443
98,,,0.2722222222222222
99,,,0.275
100,,,0.2777777777777778
101,,,0.28055555555555556
102,,,0.2833333333333333
103,,,0.2861111111111111
104,,,0.28888888888888886
105,,,0.2916666666666667
106,,,0.29444444444444445
107,,,0.2972222222222222
108,,,0.3
109,,,0.30277777777777776
110,,,0.3055555555555556
111,,,0.30833333333333335
112,,,0.3111111111111111
113,,,0.3138888888888889
114,,,0.31666666666666665
115,,,0.3194444444444444
116,,,0.32222222222222224
117,,,0.325
118,,,0.3277777777777778
119,,,0.33055555555555555
120,,,0.3333333333333333
121,,,0.33611111111111114
122,,,0.3388888888888889
123,,,0.3416666666666667
124,,,0.34444444444444444
125,,,0.3472222222222222
126,,,0.35
127,,,0.3527777777777778
128,,,0.35555555555555557
129,,,0.35833333333333334
130,,,0.3611111111111111
131,,,0.3638888888888889
132,,,0.36666666666666664
133,,,0.36944444444444446
134,,,0.37222222222222223
135,,,0.375
136,,,0.37777777777777777
137,,,0.38055555555555554
138,,,0.38333333333333336
139,,,0.3861111111111111
140,,,0.3888888888888889
141,,,0.39166666666666666
142,,,0.39444444444444443
143,,,0.3972222222222222
144,,,0.4
145,,,0.4027777777777778
146,,,0.40555555555555556
147,,,0.4083333333333333
148,,,0.4111111111111111
149,,,0.41388888888888886
150,,,0.4166666666666667
151,,,0.41944444444444445
152,,,0.4222222222222222
153,,,0.425
154,,,0.42777777777777776
155,,,0.4305555555555556
156,,,0.43333333333333335
157,,,0.4361111111111111
158,,,0.4388888888888889
159,,,0.44166666666666665
160,,,0.4444444444444444
161,,,0.44722222222222224
162,,,0.45
163,,,0.4527777777777778
164,,,0.45555555555555555
165,,,0.4583333333333333
166,,,0.46111111111111114
167,,,0.4638888888888889
168,,,0.4666666666666667
169,,,0.46944444444444444
170,,,0.4722222222222222
171,,,0.475
172,,,0.4777777777777778
173,,,0.48055555555555557
174,,,0.48333333333333334
175,,,0.4861111111111111
176,,,0.4888888888888889
177,,,0.49166666666666664
178,,,0.49444444444444446
179,,,0.49722222222222223
180,,,0.5
181,,,0.5027777777777778
182,,,0.5055555555555555
183,,,0.5083333333333333
184,,,0.5111111111111111
185,,,0.5138888888888888
186,,,0.5166666666666667
187,,,0.5194444444444445
188,,,0.5222222222222223
189,,,0.525
190,,,0.5277777777777778
191,,,0.5305555555555556
192,,,0.5333333333333333
193,,,0.5361111111111111
194,,,0.5388888888888889
195,,,0.5416666666666666
196,,,0.5444444444444444
197,,,0.5472222222222223
198,,,0.55
199,,,0.5527777777777778
200,,,0.5555555555555556
201,,,0.5583333333333333
202,,,0.5611111111111111
203,,,0.5638888888888889
204,,,0.5666666666666667
205,,,0.5694444444444444
206,,,0.5722222222222222
207,,,0.575
208,,,0.5777777777777777
209,,,0.5805555555555556
210,,,0.5833333333333334
211,,,0.5861111111111111
212,,,0.5888888888888889
213,,,0.5916666666666667
214,,,0.5944444444444444
215,,,0.5972222222222222
216,,,0.6
217,,,0.6027777777777777
218,,,0.6055555555555555
219,,,0.6083333333333333
220,,,0.6111111111111112
221,,,0.6138888888888889
222,,,0.6166666666666667
223,,,0.6194444444444445
224,,,0.6222222222222222
225,,,0.625
226,,,0.6277777777777778
227,,,0.6305555555555555
228,,,0.6333333333333333
229,,,0.6361111111111111
230,,,0.6388888888888888
231,,,0.6416666666666667
232,,,0.6444444444444445
233,,,0.6472222222222223
234,,,0.65
235,,,0.6527777777777778
236,,,0.6555555555555556
237,,,0.6583333333333333
238,,,0.6611111111111111
239,,,0.6638888888888889
240,,,0.6666666666666666
241,,,0.6694444444444444
242,,,0.6722222222222223
243,,,0.675
244,,,0.6777777777777778
245,,,0.6805555555555556
246,,,0.6833333333333333
247,,,0.6861111111111111
248,,,0.6888888888888889
249,,,0.6916666666666667
250,,,0.6944444444444444
251,,,0.6972222222222222
252,,,0.7
253,,,0.7027777777777777
254,,,0.7055555555555556
255,,,0.7083333333333334
256,,,0.7111111111111111
257,,,0.7138888888888889
258,,,0.7166666666666667
259,,,0.7194444444444444
260,,,0.7222222222222222
261,,,0.725
262,,,0.7277777777777777
263,,,0.7305555555555555
264,,,0.7333333333333333
265,,,0.7361111111111112
266,,,0.7388888888888889
267,,,0.7416666666666667
268,,,0.7444444444444445
269,,,0.7472222222222222
270,,,0.75
271,,,0.7527777777777778
272,,,0.7555555555555555
273,,,0.7583333333333333
274,,,0.7611111111111111
275,,,0.7638888888888888
276,,,0.7666666666666667
277,,,0.7694444444444445
278,,,0.7722222222222223
279,,,0.775
280,,,0.7777777777777778
281,,,0.7805555555555556
282,,,0.7833333333333333
283,,,0.7861111111111111
284,,,0.7888888888888889
285,,,0.7916666666666666
286,,,0.7944444444444444
287,,,0.7972222222222223
288,,,0.8
289,,,0.8027777777777778
290,,,0.8055555555555556
291,,,0.8083333333333333
292,,,0.8111111111111111
293,,,0.8138888888888889
294,,,0.8166666666666667
295,,,0.8194444444444444
296,,,0.8222222222222222
297,,,0.825
298,,,0.8277777777777777
299,,,0.8305555555555556
300,,,0.8333333333333334
301,,,0.8361111111111111
302,,,0.8388888888888889
303,,,0.8416666666666667
304,,,0.8444444444444444
305,,,0.8472222222222222
306,,,0.85
307,,,0.8527777777777777
308,,,0.8555555555555555
309,,,0.8583333333333333
310,,,0.8611111111111112
311,,,0.8638888888888889
312,,,0.8666666666666667
313,,,0.8694444444444445
314,,,0.8722222222222222
315,,,0.875
316,,,0.8777777777777778
317,,,0.8805555555555555
318,,,0.8833333333333333
319,,,0.8861111111111111
320,,,0.8888888888888888
321,,,0.8916666666666667
322,,,0.8944444444444445
323,,,0.8972222222222223
324,,,0.9
325,,,0.9027777777777778
326,,,0.9055555555555556
327,,,0.9083333333333333
328,,,0.9111111111111111
329,,,0.9138888888888889
330,,,0.9166666666666666
331,,,0.9194444444444444
332,,,0.9222222222222223
333,,,0.925
334,,,0.9277777777777778
335,,,0.9305555555555556
336,,,0.9333333333333333
337,,,0.9361111111111111
338,,,0.9388888888888889
339,,,0.9416666666666667
340,,,0.9444444444444444
341,,,0.9472222222222222
342,,,0.95
343,,,0.9527777777777777
344,,,0.9555555555555556
345,,,0.9583333333333334
346,,,0.9611111111111111
347,,,0.9638888888888889
348,,,0.9666666666666667
349,,,0.9694444444444444
350,,,0.9722222222222222
351,,,0.975
352,,,0.9777777777777777
353,,,0.9805555555555555
354,,,0.9833333333333333
355,,,0.9861111111111112
356,,,0.9888888888888889
357,,,0.9916666666666667
358,,,0.9944444444444445
359,,,0.9972222222222222
360,,,1.0
361,,,1.0027777777777778
362,,,1.0055555555555555
363,,,1.0083333333333333
364,,,1.011111111111111
365,,,1.0138888888888888
366,,,1.0166666666666666
367,,,1.0194444444444444
368,,,1.0222222222222221
369,,,1.025
370,,,1.0277777777777777
371,,,1.0305555555555554
372,,,1.0333333333333334
373,,,1.0361111111111112
374,,,1.038888888888889
375,,,1.0416666666666667
376,,,1.0444444444444445
377,,,1.0472222222222223
378,,,1.05
379,,,1.0527777777777778
380,,,1.0555555555555556
381,,,1.0583333333333333
382,,,1.0611111111111111
383,,,1.0638888888888889
384,,,1.0666666666666667
385,,,1.0694444444444444
386,,,1.0722222222222222
387,,,1.075
388,,,1.0777777777777777
389,,,1.0805555555555555
390,,,1.0833333333333333
391,,,1.086111111111111
392,,,1.0888888888888888
393,,,1.0916666666666666
394,,,1.0944444444444446
395,,,1.0972222222222223
396,,,1.1
397,,,1.1027777777777779
398,,,1.1055555555555556
399,,,1.1083333333333334
400,,,1.1111111111111112
401,,,1.113888888888889
402,,,1.1166666666666667
403,,,1.1194444444444445
404,,,1.1222222222222222
405,,,1.125
406,,,1.1277777777777778
407,,,1.1305555555555555
408,,,1.1333333333333333
409,,,1.136111111111111
410,,,1.1388888888888888
411,,,1.1416666666666666
412,,,1.1444444444444444
413,,,1.1472222222222221
414,,,1.15
415,,,1.1527777777777777
416,,,1.1555555555555554
417,,,1.1583333333333334
418,,,1.1611111111111112
419,,,1.163888888888889
420,,,1.1666666666666667
421,,,1.1694444444444445
422,,,1.1722222222222223
423,,,1.175
424,,,1.1777777777777778
425,,,1.1805555555555556
426,,,1.1833333333333333
427,,,1.1861111111111111
428,,,1.1888888888888889
429,,,1.1916666666666667
430,,,1.1944444444444444
431,,,1.1972222222222222
432,,,1.2
433,,,1.2027777777777777
434,,,1.2055555555555555
435,,,1.2083333333333333
436,,,1.211111111111111
437,,,1.2138888888888888
438,,,1.2166666666666666
439,,,1.2194444444444446
440,,,1.2222222222222223
441,,,1.225
442,,,1.2277777777777779
443,,,1.2305555555555556
444,,,1.2333333333333334
445,,,1.2361111111111112
446,,,1.238888888888889
447,,,1.2416666666666667
448,,,1.2444444444444445
449,,,1.2472222222222222
450,,,1.25
451,,,1.2527777777777778
452,,,1.2555555555555555
453,,,1.2583333333333333
454,,,1.261111111111111
455,,,1.2638888888888888
456,,,1.2666666666666666
457,,,1.2694444444444444
458,,,1.2722222222222221
459,,,1.275
460,,,1.2777777777777777
461,,,1.2805555555555554
462,,,1.2833333333333334
463,,,1.2861111111111112
464,,,1.288888888888889
465,,,1.2916666666666667
466,,,1.2944444444444445
467,,,1.2972222222222223
468,,,1.3
469,,,1.3027777777777778
470,,,1.3055555555555556
471,,,1.3083333333333333
472,,,1.3111111111111111
473,,,1.3138888888888889
474,,,1.3166666666666667
475,,,1.3194444444444444
476,,,1.3222222222222222
477,,,1.325
478,,,1.3277777777777777
479,,,1.3305555555555555
480,,,1.3333333333333333
481,,,1.336111111111111
482,,,1.3388888888888888
483,,,1.3416666666666666
484,,,1.3444444444444446
485,,,1.3472222222222223
486,,,1.35
487,,,1.3527777777777779
488,,,1.3555555555555556
489,,,1.3583333333333334
490,,,1.3611111111111112
491,,,1.363888888888889
492,,,1.3666666666666667
493,,,1.3694444444444445
494,,,1.3722222222222222
495,,,1.375
496,,,1.3777777777777778
497,,,1.3805555555555555
498,,,1.3833333333333333
499,,,1.386111111111111
500,,,1.3888888888888888
501,,,1.3916666666666666
502,,,1.3944444444444444
503,,,1.3972222222222221
504,,,1.4
505,,,1.4027777777777777
506,,,1.4055555555555554
507,,,1.4083333333333334
508,,,1.4111111111111112
509,,,1.413888888888889
510,,,1.4166666666666667
511,,,1.4194444444444445
512,,,1.4222222222222223
513,,,1.425
514,,,1.4277777777777778
515,,,1.4305555555555556
516,,,1.4333333333333333
517,,,1.4361111111111111
518,,,1.4388888888888889
519,,,1.4416666666666667
520,,,1.4444444444444444
521,,,1.4472222222222222
522,,,1.45
523,,,1.4527777777777777
524,,,1.4555555555555555
525,,,1.4583333333333333
526,,,1.461111111111111
527,,,1.4638888888888888
528,,,1.4666666666666666
529,,,1.4694444444444446
530,,,1.4722222222222223
531,,,1.475
532,,,1.4777777777777779
533,,,1.4805555555555556
534,,,1.4833333333333334
535,,,1.4861111111111112
536,,,1.488888888888889
537,,,1.4916666666666667
538,,,1.4944444444444445
539,,,1.4972222222222222
540,,,1.5
541,,,1.5027777777777778
542,,,1.5055555555555555
543,,,1.5083333333333333
544,,,1.511111111111111
545,,,1.5138888888888888
546,,,1.5166666666666666
547,,,1.5194444444444444
548,,,1.5222222222222221
549,,,1.525
550,,,1.5277777777777777
551,,,1.5305555555555554
552,,,1.5333333333333334
553,,,1.5361111111111112
554,,,1.538888888888889
555,,,1.5416666666666667
556,,,1.5444444444444445
557,,,1.5472222222222223
558,,,1.55
559,,,1.5527777777777778
560,,,1.5555555555555556
561,,,1.5583333333333333
562,,,1.5611111111111111
563,,,1.5638888888888889
564,,,1.5666666666666667
565,,,1.5694444444444444
566,,,1.5722222222222222
567,,,1.575
568,,,1.5777777777777777
569,,,1.5805555555555555
570,,,1.5833333333333333
571,,,1.586111111111111
572,,,1.5888888888888888
573,,,1.5916666666666666
574,,,1.5944444444444446
575,,,1.5972222222222223
576,,,1.6
577,,,1.6027777777777779
578,,,1.6055555555555556
579,,,1.6083333333333334
580,,,1.6111111111111112
581,,,1.613888888888889
582,,,1.6166666666666667
583,,,1.6194444444444445
584,,,1.6222222222222222
585,,,1.625
586,,,1.6277777777777778
587,,,1.6305555555555555
588,,,1.6333333333333333
589,,,1.636111111111111
590,,,1.6388888888888888
591,,,1.6416666666666666
592,,,1.6444444444444444
593,,,1.6472222222222221
594,,,1.65
595,,,1.6527777777777777
596,,,1.6555555555555554
597,,,1.6583333333333334
598,,,1.6611111111111112
599,,,1.663888888888889
600,,,1.6666666666666667
601,,,1.6694444444444445
602,,,1.6722222222222223
603,,,1.675
604,,,1.6777777777777778
605,,,1.6805555555555556
606,,,1.6833333333333333
607,,,1.6861111111111111
608,,,1.6888888888888889
609,,,1.6916666666666667
610,,,1.6944444444444444
611,,,1.6972222222222222
612,,,1.7
613,,,1.7027777777777777
614,,,1.7055555555555555
615,,,1.7083333333333333
616,,,1.711111111111111
617,,,1.7138888888888888
618,,,1.7166666666666666
619,,,1.7194444444444446
620,,,1.7222222222222223
621,,,1.725
622,,,1.7277777777777779
623,,,1.7305555555555556
624,,,1.7333333333333334
625,,,1.7361111111111112
626,,,1.738888888888889
627,,,1.7416666666666667
628,,,1.7444444444444445
629,,,1.7472222222222222
630,,,1.75
631,,,1.7527777777777778
632,,,1.7555555555555555
633,,,1.7583333333333333
634,,,1.761111111111111
635,,,1.7638888888888888
636,,,1.7666666666666666
637,,,1.7694444444444444
638,,,1.7722222222222221
639,,,1.775
640,,,1.7777777777777777
641,,,1.7805555555555554
642,,,1.7833333333333334
643,,,1.7861111111111112
644,,,1.788888888888889
645,,,1.7916666666666667
646,,,1.7944444444444445
647,,,1.7972222222222223
648,,,1.8
649,,,1.8027777777777778
650,,,1.8055555555555556
651,,,1.8083333333333333
652,,,1.8111111111111111
653,,,1.8138888888888889
654,,,1.8166666666666667
655,,,1.8194444444444444
656,,,1.8222222222222222
657,,,1.825
658,,,1.8277777777777777
659,,,1.8305555555555555
660,,,1.8333333333333333
661,,,1.836111111111111
662,,,1.8388888888888888
663,,,1.8416666666666666
664,,,1.8444444444444446
665,,,1.8472222222222223
666,,,1.85
667,,,1.8527777777777779
668,,,1.8555555555555556
669,,,1.8583333333333334
670,,,1.8611111111111112
671,,,1.863888888888889
672,,,1.8666666666666667
673,,,1.8694444444444445
674,,,1.8722222222222222
675,,,1.875
676,,,1.8777777777777778
677,,,1.8805555555555555
678,,,1.8833333333333333
679,,,1.886111111111111
680,,,1.8888888888888888
681,,,1.8916666666666666
682,,,1.8944444444444444
683,,,1.8972222222222221
684,,,1.9
685,,,1.9027777777777777
686,,,1.9055555555555554
687,,,1.9083333333333334
688,,,1.9111111111111112
689,,,1.913888888888889
690,,,1.9166666666666667
691,,,1.9194444444444445
692,,,1.9222222222222223
693,,,1.925
694,,,1.9277777777777778
695,,,1.9305555555555556
696,,,1.9333333333333333
697,,,1.9361111111111111
698,,,1.9388888888888889
699,,,1.9416666666666667
700,,,1.9444444444444444
701,,,1.9472222222222222
702,,,1.95
703,,,1.9527777777777777
704,,,1.9555555555555555
705,,,1.9583333333333333
706,,,1.961111111111111
707,,,1.9638888888888888
708,,,1.9666666666666666
709,,,1.9694444444444446
710,,,1.9722222222222223
711,,,1.975
712,,,1.9777777777777779
713,,,1.9805555555555556
714,,,1.9833333333333334
715,,,1.9861111111111112
716,,,1.988888888888889
717,,,1.9916666666666667
718,,,1.9944444444444445
719,,,1.9972222222222222
720,,,2.0
721,,,2.0027777777777778
722,,,2.0055555555555555
723,,,2.0083333333333333
724,,,2.011111111111111
725,,,2.013888888888889
726,,,2.0166666666666666
727,,,2.0194444444444444
728,,,2.022222222222222
729,,,2.025
730,,,2.0277777777777777
731,,,2.0305555555555554
732,,,2.033333333333333
733,,,2.036111111111111
734,,,2.0388888888888888
735,,,2.0416666666666665
736,,,2.0444444444444443
737,,,2.047222222222222
738,,,2.05
739,,,2.0527777777777776
740,,,2.0555555555555554
741,,,2.058333333333333
742,,,2.061111111111111
743,,,2.063888888888889
744,,,2.066666666666667
745,,,2.0694444444444446
746,,,2.0722222222222224
747,,,2.075
748,,,2.077777777777778
749,,,2.0805555555555557
750,,,2.0833333333333335
751,,,2.0861111111111112
752,,,2.088888888888889
753,,,2.091666666666667
754,,,2.0944444444444446
755,,,2.0972222222222223
756,,,2.1
757,,,2.102777777777778
758,,,2.1055555555555556
759,,,2.1083333333333334
760,,,2.111111111111111
761,,,2.113888888888889
762,,,2.1166666666666667
763,,,2.1194444444444445
764,,,2.1222222222222222
765,,,2.125
766,,,2.1277777777777778
767,,,2.1305555555555555
768,,,2.1333333333333333
769,,,2.136111111111111
770,,,2.138888888888889
771,,,2.1416666666666666
772,,,2.1444444444444444
773,,,2.147222222222222
774,,,2.15
775,,,2.1527777777777777
776,,,2.1555555555555554
777,,,2.158333333333333
778,,,2.161111111111111
779,,,2.1638888888888888
780,,,2.1666666666666665
781,,,2.1694444444444443
782,,,2.172222222222222
783,,,2.175
784,,,2.1777777777777776
785,,,2.1805555555555554
786,,,2.183333333333333
787,,,2.186111111111111
788,,,2.188888888888889
789,,,2.191666666666667
790,,,2.1944444444444446
791,,,2.1972222222222224
792,,,2.2
793,,,2.202777777777778
794,,,2.2055555555555557
795,,,2.2083333333333335
796,,,2.2111111111111112
797,,,2.213888888888889
798,,,2.216666666666667
799,,,2.2194444444444446
800,,,2.2222222222222223
801,,,2.225
802,,,2.227777777777778
803,,,2.2305555555555556
804,,,2.2333333333333334
805,,,2.236111111111111
806,,,2.238888888888889
807,,,2.2416666666666667
808,,,2.2444444444444445
809,,,2.2472222222222222
810,,,2.25
811,,,2.2527777777777778
812,,,2.2555555555555555
813,,,2.2583333333333333
814,,,2.261111111111111
815,,,2.263888888888889
816,,,2.2666666666666666
817,,,2.2694444444444444
818,,,2.272222222222222
819,,,2.275
820,,,2.2777777777777777
821,,,2.2805555555555554
822,,,2.283333333333333
823,,,2.286111111111111
824,,,2.2888888888888888
825,,,2.2916666666666665
826,,,2.2944444444444443
827,,,2.297222222222222
828,,,2.3
829,,,2.3027777777777776
830,,,2.3055555555555554
831,,,2.308333333333333
832,,,2.311111111111111
833,,,2.313888888888889
834,,,2.316666666666667
835,,,2.3194444444444446
836,,,2.3222222222222224
837,,,2.325
838,,,2.327777777777778
839,,,2.3305555555555557
840,,,2.3333333333333335
841,,,2.3361111111111112
842,,,2.338888888888889
843,,,2.341666666666667
844,,,2.3444444444444446
845,,,2.3472222222222223
846,,,2.35
847,,,2.352777777777778
848,,,2.3555555555555556
849,,,2.3583333333333334
850,,,2.361111111111111
851,,,2.363888888888889
852,,,2.3666666666666667
853,,,2.3694444444444445
854,,,2.3722222222222222
855,,,2.375
856,,,2.3777777777777778
857,,,2.3805555555555555
858,,,2.3833333333333333
859,,,2.386111111111111
860,,,2.388888888888889
861,,,2.3916666666666666
862,,,2.3944444444444444
863,,,2.397222222222222
864,,,2.4
865,,,2.4027777777777777
866,,,2.4055555555555554
867,,,2.408333333333333
868,,,2.411111111111111
869,,,2.4138888888888888
870,,,2.4166666666666665
871,,,2.4194444444444443
872,,,2.422222222222222
873,,,2.425
874,,,2.4277777777777776
875,,,2.4305555555555554
876,,,2.433333333333333
877,,,2.436111111111111
878,,,2.438888888888889
879,,,2.441666666666667
880,,,2.4444444444444446
881,,,2.4472222222222224
882,,,2.45
883,,,2.452777777777778
884,,,2.4555555555555557
885,,,2.4583333333333335
886,,,2.4611111111111112
887,,,2.463888888888889
888,,,2.466666666666667
889,,,2.4694444444444446
890,,,2.4722222222222223
891,,,2.475
892,,,2.477777777777778
893,,,2.4805555555555556
894,,,2.4833333333333334
895,,,2.486111111111111
896,,,2.488888888888889
897,,,2.4916666666666667
898,,,2.4944444444444445
899,,,2.4972222222222222
900,,,2.5
901,,,2.5027777777777778
902,,,2.5055555555555555
903,,,2.5083333333333333
904,,,2.511111111111111
905,,,2.513888888888889
906,,,2.5166666666666666
907,,,2.5194444444444444
908,,,2.522222222222222
909,,,2.525
910,,,2.5277777777777777
911,,,2.5305555555555554
912,,,2.533333333333333
913,,,2.536111111111111
914,,,2.5388888888888888
915,,,2.5416666666666665
916,,,2.5444444444444443
917,,,2.547222222222222
918,,,2.55
919,,,2.5527777777777776
920,,,2.5555555555555554
921,,,2.558333333333333
922,,,2.561111111111111
923,,,2.563888888888889
924,,,2.566666666666667
925,,,2.5694444444444446
926,,,2.5722222222222224
927,,,2.575
928,,,2.577777777777778
929,,,2.5805555555555557
930,,,2.5833333333333335
931,,,2.5861111111111112
932,,,2.588888888888889
933,,,2.591666666666667
934,,,2.5944444444444446
935,,,2.5972222222222223
936,,,2.6
937,,,2.602777777777778
938,,,2.6055555555555556
939,,,2.6083333333333334
940,,,2.611111111111111
941,,,2.613888888888889
942,,,2.6166666666666667
943,,,2.6194444444444445
944,,,2.6222222222222222
945,,,2.625
946,,,2.6277777777777778
947,,,2.6305555555555555
948,,,2.6333333333333333
949,,,2.636111111111111
950,,,2.638888888888889
951,,,2.6416666666666666
952,,,2.6444444444444444
953,,,2.647222222222222
954,,,2.65
955,,,2.6527777777777777
956,,,2.6555555555555554
957,,,2.658333333333333
958,,,2.661111111111111
959,,,2.6638888888888888
960,,,2.6666666666666665
961,,,2.6694444444444443
962,,,2.672222222222222
963,,,2.675
964,,,2.6777777777777776
965,,,2.6805555555555554
966,,,2.683333333333333
967,,,2.686111111111111
968,,,2.688888888888889
969,,,2.691666666666667
970,,,2.6944444444444446
971,,,2.6972222222222224
972,,,2.7
973,,,2.702777777777778
974,,,2.7055555555555557
975,,,2.7083333333333335
976,,,2.7111111111111112
977,,,2.713888888888889
978,,,2.716666666666667
979,,,2.7194444444444446
980,,,2.7222222222222223
981,,,2.725
982,,,2.727777777777778
983,,,2.7305555555555556
984,,,2.7333333333333334
985,,,2.736111111111111
986,,,2.738888888888889
987,,,2.7416666666666667
988,,,2.7444444444444445
989,,,2.7472222222222222
990,,,2.75
991,,,2.7527777777777778
992,,,2.7555555555555555
993,,,2.7583333333333333
994,,,2.761111111111111
995,,,2.763888888888889
996,,,2.7666666666666666
997,,,2.7694444444444444
998,,,2.772222222222222
999,,,2.775
1000,,,2.7777777777777777
1001,,,2.7805555555555554
1002,,,2.783333333333333
1003,,,2.786111111111111
1004,,,2.7888888888888888
1005,,,2.7916666666666665
1006,,,2.7944444444444443
1007,,,2.797222222222222
1008,,,2.8
1009,,,2.8027777777777776
1010,,,2.8055555555555554
1011,,,2.808333333333333
1012,,,2.811111111111111
1013,,,2.813888888888889
1014,,,2.816666666666667
1015,,,2.8194444444444446
1016,,,2.8222222222222224
1017,,,2.825
1018,,,2.827777777777778
1019,,,2.8305555555555557
1020,,,2.8333333333333335
1021,,,2.8361111111111112
1022,,,2.838888888888889
1023,,,2.841666666666667
1024,,,2.8444444444444446
1025,,,2.8472222222222223
1026,,,2.85
1027,,,2.852777777777778
1028,,,2.8555555555555556
1029,,,2.8583333333333334
1030,,,2.861111111111111
1031,,,2.863888888888889
1032,,,2.8666666666666667
1033,,,2.8694444444444445
1034,,,2.8722222222222222
1035,,,2.875
1036,,,2.8777777777777778
1037,,,2.8805555555555555
1038,,,2.8833333333333333
1039,,,2.886111111111111
1040,,,2.888888888888889
1041,,,2.8916666666666666
1042,,,2.8944444444444444
1043,,,2.897222222222222
1044,,,2.9
1045,,,2.9027777777777777
1046,,,2.9055555555555554
1047,,,2.908333333333333
1048,,,2.911111111111111
1049,,,2.9138888888888888
1050,,,2.9166666666666665
1051,,,2.9194444444444443
1052,,,2.922222222222222
1053,,,2.925
1054,,,2.9277777777777776
1055,,,2.9305555555555554
1056,,,2.933333333333333
1057,,,2.936111111111111
1058,,,2.938888888888889
1059,,,2.941666666666667
1060,,,2.9444444444444446
1061,,,2.9472222222222224
1062,,,2.95
1063,,,2.952777777777778
1064,,,2.9555555555555557
1065,,,2.9583333333333335
1066,,,2.9611111111111112
1067,,,2.963888888888889
1068,,,2.966666666666667
1069,,,2.9694444444444446
1070,,,2.9722222222222223
1071,,,2.975
1072,,,2.977777777777778
1073,,,2.9805555555555556
1074,,,2.9833333333333334
1075,,,2.986111111111111
1076,,,2.988888888888889
1077,,,2.9916666666666667
1078,,,2.9944444444444445
1079,,,2.9972222222222222
1080,,,3.0
1081,,,3.0027777777777778
1082,,,3.0055555555555555
1083,,,3.0083333333333333
1084,,,3.011111111111111
1085,,,3.013888888888889
1086,,,3.0166666666666666
1087,,,3.0194444444444444
1088,,,3.022222222222222
1089,,,3.025
1090,,,3.0277777777777777
1091,,,3.0305555555555554
1092,,,3.033333333333333
1093,,,3.036111111111111
1094,,,3.0388888888888888
1095,,,3.0416666666666665
1096,,,3.0444444444444443
1097,,,3.047222222222222
1098,,,3.05
1099,,,3.0527777777777776
1100,,,3.0555555555555554
1101,,,3.058333333333333
1102,,,3.061111111111111
1103,,,3.063888888888889
1104,,,3.066666666666667
1105,,,3.0694444444444446
1106,,,3.0722222222222224
1107,,,3.075
1108,,,3.077777777777778
1109,,,3.0805555555555557
1110,,,3.0833333333333335
1111,,,3.0861111111111112
1112,,,3.088888888888889
1113,,,3.091666666666667
1114,,,3.0944444444444446
1115,,,3.0972222222222223
1116,,,3.1
1117,,,3.102777777777778
1118,,,3.1055555555555556
1119,,,3.1083333333333334
1120,,,3.111111111111111
1121,,,3.113888888888889
1122,,,3.1166666666666667
1123,,,3.1194444444444445
1124,,,3.1222222222222222
1125,,,3.125
1126,,,3.1277777777777778
1127,,,3.1305555555555555
1128,,,3.1333333333333333
1129,,,3.136111111111111
1130,,,3.138888888888889
1131,,,3.1416666666666666
1132,,,3.1444444444444444
1133,,,3.147222222222222
1134,,,3.15
1135,,,3.1527777777777777
1136,,,3.1555555555555554
1137,,,3.158333333333333
1138,,,3.161111111111111
1139,,,3.1638888888888888
1140,,,3.1666666666666665
1141,,,3.1694444444444443
1142,,,3.172222222222222
1143,,,3.175
1144,,,3.1777777777777776
1145,,,3.1805555555555554
1146,,,3.183333333333333
1147,,,3.186111111111111
1148,,,3.188888888888889
1149,,,3.191666666666667
1150,,,3.1944444444444446
1151,,,3.1972222222222224
1152,,,3.2
1153,,,3.202777777777778
1154,,,3.2055555555555557
1155,,,3.2083333333333335
1156,,,3.2111111111111112
1157,,,3.213888888888889
1158,,,3.216666666666667
1159,,,3.2194444444444446
1160,,,3.2222222222222223
1161,,,3.225
1162,,,3.227777777777778
1163,,,3.2305555555555556
1164,,,3.2333333333333334
1165,,,3.236111111111111
1166,,,3.238888888888889
1167,,,3.2416666666666667
1168,,,3.2444444444444445
1169,,,3.2472222222222222
1170,,,3.25
1171,,,3.2527777777777778
1172,,,3.2555555555555555
1173,,,3.2583333333333333
1174,,,3.261111111111111
1175,,,3.263888888888889
1176,,,3.2666666666666666
1177,,,3.2694444444444444
1178,,,3.272222222222222
1179,,,3.275
1180,,,3.2777777777777777
1181,,,3.2805555555555554
1182,,,3.283333333333333
1183,,,3.286111111111111
1184,,,3.2888888888888888
1185,,,3.2916666666666665
1186,,,3.2944444444444443
1187,,,3.297222222222222
1188,,,3.3
1189,,,3.3027777777777776
1190,,,3.3055555555555554
1191,,,3.308333333333333
1192,,,3.311111111111111
1193,,,3.313888888888889
1194,,,3.316666666666667
1195,,,3.3194444444444446
1196,,,3.3222222222222224
1197,,,3.325
1198,,,3.327777777777778
1199,,,3.3305555555555557
1200,,,3.3333333333333335
1201,,,3.3361111111111112
1202,,,3.338888888888889
1203,,,3.341666666666667
1204,,,3.3444444444444446
1205,,,3.3472222222222223
1206,,,3.35
1207,,,3.352777777777778
1208,,,3.3555555555555556
1209,,,3.3583333333333334
1210,,,3.361111111111111
1211,,,3.363888888888889
1212,,,3.3666666666666667
1213,,,3.3694444444444445
1214,,,3.3722222222222222
1215,,,3.375
1216,,,3.3777777777777778
1217,,,3.3805555555555555
1218,,,3.3833333333333333
1219,,,3.386111111111111
1220,,,3.388888888888889
1221,,,3.3916666666666666
1222,,,3.3944444444444444
1223,,,3.397222222222222
1224,,,3.4
1225,,,3.4027777777777777
1226,,,3.4055555555555554
1227,,,3.408333333333333
1228,,,3.411111111111111
1229,,,3.4138888888888888
1230,,,3.4166666666666665
1231,,,3.4194444444444443
1232,,,3.422222222222222
1233,,,3.425
1234,,,3.4277777777777776
1235,,,3.4305555555555554
1236,,,3.433333333333333
1237,,,3.436111111111111
1238,,,3.438888888888889
1239,,,3.441666666666667
1240,,,3.4444444444444446
1241,,,3.4472222222222224
1242,,,3.45
1243,,,3.452777777777778
1244,,,3.4555555555555557
1245,,,3.4583333333333335
1246,,,3.4611111111111112
1247,,,3.463888888888889
1248,,,3.466666666666667
1249,,,3.4694444444444446
1250,,,3.4722222222222223
1251,,,3.475
1252,,,3.477777777777778
1253,,,3.4805555555555556
1254,,,3.4833333333333334
1255,,,3.486111111111111
1256,,,3.488888888888889
1257,,,3.4916666666666667
1258,,,3.4944444444444445
1259,,,3.4972222222222222
1260,,,3.5
1261,,,3.5027777777777778
1262,,,3.5055555555555555
1263,,,3.5083333333333333
1264,,,3.511111111111111
1265,,,3.513888888888889
1266,,,3.5166666666666666
1267,,,3.5194444444444444
1268,,,3.522222222222222
1269,,,3.525
1270,,,3.5277777777777777
1271,,,3.5305555555555554
1272,,,3.533333333333333
1273,,,3.536111111111111
1274,,,3.5388888888888888
1275,,,3.5416666666666665
1276,,,3.5444444444444443
1277,,,3.547222222222222
1278,,,3.55
1279,,,3.5527777777777776
1280,,,3.5555555555555554
1281,,,3.558333333333333
1282,,,3.561111111111111
1283,,,3.563888888888889
1284,,,3.566666666666667
1285,,,3.5694444444444446
1286,,,3.5722222222222224
1287,,,3.575
1288,,,3.577777777777778
1289,,,3.5805555555555557
1290,,,3.5833333333333335
1291,,,3.5861111111111112
1292,,,3.588888888888889
1293,,,3.591666666666667
1294,,,3.5944444444444446
1295,,,3.5972222222222223
1296,,,3.6
1297,,,3.602777777777778
1298,,,3.6055555555555556
1299,,,3.6083333333333334
1300,,,3.611111111111111
1301,,,3.613888888888889
1302,,,3.6166666666666667
1303,,,3.6194444444444445
1304,,,3.6222222222222222
1305,,,3.625
1306,,,3.6277777777777778
1307,,,3.6305555555555555
1308,,,3.6333333333333333
1309,,,3.636111111111111
1310,,,3.638888888888889
1311,,,3.6416666666666666
1312,,,3.6444444444444444
1313,,,3.647222222222222
1314,,,3.65
1315,,,3.6527777777777777
1316,,,3.6555555555555554
1317,,,3.658333333333333
1318,,,3.661111111111111
1319,,,3.6638888888888888
1320,,,3.6666666666666665
1321,,,3.6694444444444443
1322,,,3.672222222222222
1323,,,3.675
1324,,,3.6777777777777776
1325,,,3.6805555555555554
1326,,,3.683333333333333
1327,,,3.686111111111111
1328,,,3.688888888888889
1329,,,3.691666666666667
1330,,,3.6944444444444446
1331,,,3.6972222222222224
1332,,,3.7
1333,,,3.702777777777778
1334,,,3.7055555555555557
1335,,,3.7083333333333335
1336,,,3.7111111111111112
1337,,,3.713888888888889
1338,,,3.716666666666667
1339,,,3.7194444444444446
1340,,,3.7222222222222223
1341,,,3.725
1342,,,3.727777777777778
1343,,,3.7305555555555556
1344,,,3.7333333333333334
1345,,,3.736111111111111
1346,,,3.738888888888889
1347,,,3.7416666666666667
1348,,,3.7444444444444445
1349,,,3.7472222222222222
1350,,,3.75
1351,,,3.7527777777777778
1352,,,3.7555555555555555
1353,,,3.7583333333333333
1354,,,3.761111111111111
1355,,,3.763888888888889
1356,,,3.7666666666666666
1357,,,3.7694444444444444
1358,,,3.772222222222222
1359,,,3.775
1360,,,3.7777777777777777
1361,,,3.7805555555555554
1362,,,3.783333333333333
1363,,,3.786111111111111
1364,,,3.7888888888888888
1365,,,3.7916666666666665
1366,,,3.7944444444444443
1367,,,3.797222222222222
1368,,,3.8
1369,,,3.8027777777777776
1370,,,3.8055555555555554
1371,,,3.808333333333333
1372,,,3.811111111111111
1373,,,3.813888888888889
1374,,,3.816666666666667
1375,,,3.8194444444444446
1376,,,3.8222222222222224
1377,,,3.825
1378,,,3.827777777777778
1379,,,3.8305555555555557
1380,,,3.8333333333333335
1381,,,3.8361111111111112
1382,,,3.838888888888889
1383,,,3.841666666666667
1384,,,3.8444444444444446
1385,,,3.8472222222222223
1386,,,3.85
1387,,,3.852777777777778
1388,,,3.8555555555555556
1389,,,3.8583333333333334
1390,,,3.861111111111111
1391,,,3.863888888888889
1392,,,3.8666666666666667
1393,,,3.8694444444444445
1394,,,3.8722222222222222
1395,,,3.875
1396,,,3.8777777777777778
1397,,,3.8805555555555555
1398,,,3.8833333333333333
1399,,,3.886111111111111
1400,,,3.888888888888889
1401,,,3.8916666666666666
1402,,,3.8944444444444444
1403,,,3.897222222222222
1404,,,3.9
1405,,,3.9027777777777777
1406,,,3.9055555555555554
1407,,,3.908333333333333
1408,,,3.911111111111111
1409,,,3.9138888888888888
1410,,,3.9166666666666665
1411,,,3.9194444444444443
1412,,,3.922222222222222
1413,,,3.925
1414,,,3.9277777777777776
1415,,,3.9305555555555554
1416,,,3.933333333333333
1417,,,3.936111111111111
1418,,,3.938888888888889
1419,,,3.941666666666667
1420,,,3.9444444444444446
1421,,,3.9472222222222224
1422,,,3.95
1423,,,3.952777777777778
1424,,,3.9555555555555557
1425,,,3.9583333333333335
1426,,,3.9611111111111112
1427,,,3.963888888888889
1428,,,3.966666666666667
1429,,,3.9694444444444446
1430,,,3.9722222222222223
1431,,,3.975
1432,,,3.977777777777778
1433,,,3.9805555555555556
1434,,,3.9833333333333334
1435,,,3.986111111111111
1436,,,3.988888888888889
1437,,,3.9916666666666667
1438,,,3.9944444444444445
1439,,,3.9972222222222222
1440,,,4.0
1441,,,4.002777777777778
1442,,,4.0055555555555555
1443,,,4.008333333333334
1444,,,4.011111111111111
1445,,,4.013888888888889
1446,,,4.016666666666667
1447,,,4.019444444444445
1448,,,4.022222222222222
1449,,,4.025
1450,,,4.027777777777778
1451,,,4.030555555555556
1452,,,4.033333333333333
1453,,,4.036111111111111
1454,,,4.038888888888889
1455,,,4.041666666666667
1456,,,4.044444444444444
1457,,,4.0472222222222225
1458,,,4.05
1459,,,4.052777777777778
1460,,,4.055555555555555
1461,,,4.058333333333334
1462,,,4.061111111111111
1463,,,4.063888888888889
1464,,,4.066666666666666
1465,,,4.069444444444445
1466,,,4.072222222222222
1467,,,4.075
1468,,,4.0777777777777775
1469,,,4.080555555555556
1470,,,4.083333333333333
1471,,,4.086111111111111
1472,,,4.088888888888889
1473,,,4.091666666666667
1474,,,4.094444444444444
1475,,,4.097222222222222
1476,,,4.1
1477,,,4.102777777777778
1478,,,4.105555555555555
1479,,,4.108333333333333
1480,,,4.111111111111111
1481,,,4.113888888888889
1482,,,4.116666666666666
1483,,,4.1194444444444445
1484,,,4.122222222222222
1485,,,4.125
1486,,,4.127777777777778
1487,,,4.1305555555555555
1488,,,4.133333333333334
1489,,,4.136111111111111
1490,,,4.138888888888889
1491,,,4.141666666666667
1492,,,4.144444444444445
1493,,,4.147222222222222
1494,,,4.15
1495,,,4.152777777777778
1496,,,4.155555555555556
1497,,,4.158333333333333
1498,,,4.161111111111111
1499,,,4.163888888888889
1500,,,4.166666666666667
1501,,,4.169444444444444
1502,,,4.1722222222222225
1503,,,4.175
1504,,,4.177777777777778
1505,,,4.180555555555555
1506,,,4.183333333333334
1507,,,4.186111111111111
1508,,,4.188888888888889
1509,,,4.191666666666666
1510,,,4.194444444444445
1511,,,4.197222222222222
1512,,,4.2
1513,,,4.2027777777777775
1514,,,4.205555555555556
1515,,,4.208333333333333
1516,,,4.211111111111111
1517,,,4.213888888888889
1518,,,4.216666666666667
1519,,,4.219444444444444
1520,,,4.222222222222222
1521,,,4.225
1522,,,4.227777777777778
1523,,,4.230555555555555
1524,,,4.233333333333333
1525,,,4.236111111111111
1526,,,4.238888888888889
1527,,,4.241666666666666
1528,,,4.2444444444444445
1529,,,4.247222222222222
1530,,,4.25
1531,,,4.252777777777778
1532,,,4.2555555555555555
1533,,,4.258333333333334
1534,,,4.261111111111111
1535,,,4.263888888888889
1536,,,4.266666666666667
1537,,,4.269444444444445
1538,,,4.272222222222222
1539,,,4.275
1540,,,4.277777777777778
1541,,,4.280555555555556
1542,,,4.283333333333333
1543,,,4.286111111111111
1544,,,4.288888888888889
1545,,,4.291666666666667
1546,,,4.294444444444444
1547,,,4.2972222222222225
1548,,,4.3
1549,,,4.302777777777778
1550,,,4.305555555555555
1551,,,4.308333333333334
1552,,,4.311111111111111
1553,,,4.313888888888889
1554,,,4.316666666666666
1555,,,4.319444444444445
1556,,,4.322222222222222
1557,,,4.325
1558,,,4.3277777777777775
1559,,,4.330555555555556
1560,,,4.333333333333333
1561,,,4.336111111111111
1562,,,4.338888888888889
1563,,,4.341666666666667
1564,,,4.344444444444444
1565,,,4.347222222222222
1566,,,4.35
1567,,,4.352777777777778
1568,,,4.355555555555555
1569,,,4.358333333333333
1570,,,4.361111111111111
1571,,,4.363888888888889
1572,,,4.366666666666666
1573,,,4.3694444444444445
1574,,,4.372222222222222
1575,,,4.375
1576,,,4.377777777777778
1577,,,4.3805555555555555
1578,,,4.383333333333334
1579,,,4.386111111111111
1580,,,4.388888888888889
1581,,,4.391666666666667
1582,,,4.394444444444445
1583,,,4.397222222222222
1584,,,4.4
1585,,,4.402777777777778
1586,,,4.405555555555556
1587,,,4.408333333333333
1588,,,4.411111111111111
1589,,,4.413888888888889
1590,,,4.416666666666667
1591,,,4.419444444444444
1592,,,4.4222222222222225
1593,,,4.425
1594,,,4.427777777777778
1595,,,4.430555555555555
1596,,,4.433333333333334
1597,,,4.436111111111111
1598,,,4.438888888888889
1599,,,4.441666666666666
1600,,,4.444444444444445
1601,,,4.447222222222222
1602,,,4.45
1603,,,4.4527777777777775
1604,,,4.455555555555556
1605,,,4.458333333333333
1606,,,4.461111111111111
1607,,,4.463888888888889
1608,,,4.466666666666667
1609,,,4.469444444444444
1610,,,4.472222222222222
1611,,,4.475
1612,,,4.477777777777778
1613,,,4.480555555555555
1614,,,4.483333333333333
1615,,,4.486111111111111
1616,,,4.488888888888889
1617,,,4.491666666666666
1618,,,4.4944444444444445
1619,,,4.497222222222222
1620,,,4.5
1621,,,4.502777777777778
1622,,,4.5055555555555555
1623,,,4.508333333333334
1624,,,4.511111111111111
1625,,,4.513888888888889
1626,,,4.516666666666667
1627,,,4.519444444444445
1628,,,4.522222222222222
1629,,,4.525
1630,,,4.527777777777778
1631,,,4.530555555555556
1632,,,4.533333333333333
1633,,,4.536111111111111
1634,,,4.538888888888889
1635,,,4.541666666666667
1636,,,4.544444444444444
1637,,,4.5472222222222225
1638,,,4.55
1639,,,4.552777777777778
1640,,,4.555555555555555
1641,,,4.558333333333334
1642,,,4.561111111111111
1643,,,4.563888888888889
1644,,,4.566666666666666
1645,,,4.569444444444445
1646,,,4.572222222222222
1647,,,4.575
1648,,,4.5777777777777775
1649,,,4.580555555555556
1650,,,4.583333333333333
1651,,,4.586111111111111
1652,,,4.588888888888889
1653,,,4.591666666666667
1654,,,4.594444444444444
1655,,,4.597222222222222
1656,,,4.6
1657,,,4.602777777777778
1658,,,4.605555555555555
1659,,,4.608333333333333
1660,,,4.611111111111111
1661,,,4.613888888888889
1662,,,4.616666666666666
1663,,,4.6194444444444445
1664,,,4.622222222222222
1665,,,4.625
1666,,,4.627777777777778
1667,,,4.6305555555555555
1668,,,4.633333333333334
1669,,,4.636111111111111
1670,,,4.638888888888889
1671,,,4.641666666666667
1672,,,4.644444444444445
1673,,,4.647222222222222
1674,,,4.65
1675,,,4.652777777777778
1676,,,4.655555555555556
1677,,,4.658333333333333
1678,,,4.661111111111111
1679,,,4.663888888888889
1680,,,4.666666666666667
1681,,,4.669444444444444
1682,,,4.6722222222222225
1683,,,4.675
1684,,,4.677777777777778
1685,,,4.680555555555555
1686,,,4.683333333333334
1687,,,4.686111111111111
1688,,,4.688888888888889
1689,,,4.691666666666666
1690,,,4.694444444444445
1691,,,4.697222222222222
1692,,,4.7
1693,,,4.7027777777777775
1694,,,4.705555555555556
1695,,,4.708333333333333
1696,,,4.711111111111111
1697,,,4.713888888888889
1698,,,4.716666666666667
1699,,,4.719444444444444
1700,,,4.722222222222222
1701,,,4.725
1702,,,4.727777777777778
1703,,,4.730555555555555
1704,,,4.733333333333333
1705,,,4.736111111111111
1706,,,4.738888888888889
1707,,,4.741666666666666
1708,,,4.7444444444444445
1709,,,4.747222222222222
1710,,,4.75
1711,,,4.752777777777778
1712,,,4.7555555555555555
1713,,,4.758333333333334
1714,,,4.761111111111111
1715,,,4.763888888888889
1716,,,4.766666666666667
1717,,,4.769444444444445
1718,,,4.772222222222222
1719,,,4.775
1720,,,4.777777777777778
1721,,,4.780555555555556
1722,,,4.783333333333333
1723,,,4.786111111111111
1724,,,4.788888888888889
1725,,,4.791666666666667
1726,,,4.794444444444444
1727,,,4.7972222222222225
1728,,,4.8
1729,,,4.802777777777778
1730,,,4.805555555555555
1731,,,4.808333333333334
1732,,,4.811111111111111
1733,,,4.813888888888889
1734,,,4.816666666666666
1735,,,4.819444444444445
1736,,,4.822222222222222
1737,,,4.825
1738,,,4.8277777777777775
1739,,,4.830555555555556
1740,,,4.833333333333333
1741,,,4.836111111111111
1742,,,4.838888888888889
1743,,,4.841666666666667
1744,,,4.844444444444444
1745,,,4.847222222222222
1746,,,4.85
1747,,,4.852777777777778
1748,,,4.855555555555555
1749,,,4.858333333333333
1750,,,4.861111111111111
1751,,,4.863888888888889
1752,,,4.866666666666666
1753,,,4.8694444444444445
1754,,,4.872222222222222
1755,,,4.875
1756,,,4.877777777777778
1757,,,4.8805555555555555
1758,,,4.883333333333334
1759,,,4.886111111111111
1760,,,4.888888888888889
1761,,,4.891666666666667
1762,,,4.894444444444445
1763,,,4.897222222222222
1764,,,4.9
1765,,,4.902777777777778
1766,,,4.905555555555556
1767,,,4.908333333333333
1768,,,4.911111111111111
1769,,,4.913888888888889
1770,,,4.916666666666667
1771,,,4.919444444444444
1772,,,4.9222222222222225
1773,,,4.925
1774,,,4.927777777777778
1775,,,4.930555555555555
1776,,,4.933333333333334
1777,,,4.936111111111111
1778,,,4.938888888888889
1779,,,4.941666666666666
1780,,,4.944444444444445
1781,,,4.947222222222222
1782,,,4.95
1783,,,4.9527777777777775
1784,,,4.955555555555556
1785,,,4.958333333333333
1786,,,4.961111111111111
1787,,,4.963888888888889
1788,,,4.966666666666667
1789,,,4.969444444444444
1790,,,4.972222222222222
1791,,,4.975
1792,,,4.977777777777778
1793,,,4.980555555555555
1794,,,4.983333333333333
1795,,,4.986111111111111
1796,,,4.988888888888889
1797,,,4.991666666666666
1798,,,4.9944444444444445
1799,,,4.997222222222222
1800,,,5.0
1801,,,5.002777777777778
1802,,,5.0055555555555555
1803,,,5.008333333333334
1804,,,5.011111111111111
1805,,,5.013888888888889
1806,,,5.016666666666667
1807,,,5.019444444444445
1808,,,5.022222222222222
1809,,,5.025
1810,,,5.027777777777778
1811,,,5.030555555555556
1812,,,5.033333333333333
1813,,,5.036111111111111
1814,,,5.038888888888889
1815,,,5.041666666666667
1816,,,5.044444444444444
1817,,,5.0472222222222225
1818,,,5.05
1819,,,5.052777777777778
1820,,,5.055555555555555
1821,,,5.058333333333334
1822,,,5.061111111111111
1823,,,5.063888888888889
1824,,,5.066666666666666
1825,,,5.069444444444445
1826,,,5.072222222222222
1827,,,5.075
1828,,,5.0777777777777775
1829,,,5.080555555555556
1830,,,5.083333333333333
1831,,,5.086111111111111
1832,,,5.088888888888889
1833,,,5.091666666666667
1834,,,5.094444444444444
1835,,,5.097222222222222
1836,,,5.1
1837,,,5.102777777777778
1838,,,5.105555555555555
1839,,,5.108333333333333
1840,,,5.111111111111111
1841,,,5.113888888888889
1842,,,5.116666666666666
1843,,,5.1194444444444445
1844,,,5.122222222222222
1845,,,5.125
1846,,,5.127777777777778
1847,,,5.1305555555555555
1848,,,5.133333333333334
1849,,,5.136111111111111
1850,,,5.138888888888889
1851,,,5.141666666666667
1852,,,5.144444444444445
1853,,,5.147222222222222
1854,,,5.15
1855,,,5.152777777777778
1856,,,5.155555555555556
1857,,,5.158333333333333
1858,,,5.161111111111111
1859,,,5.163888888888889
1860,,,5.166666666666667
1861,,,5.169444444444444
1862,,,5.1722222222222225
1863,,,5.175
1864,,,5.177777777777778
1865,,,5.180555555555555
1866,,,5.183333333333334
1867,,,5.186111111111111
1868,,,5.188888888888889
1869,,,5.191666666666666
1870,,,5.194444444444445
1871,,,5.197222222222222
1872,,,5.2
1873,,,5.2027777777777775
1874,,,5.205555555555556
1875,,,5.208333333333333
1876,,,5.211111111111111
1877,,,5.213888888888889
1878,,,5.216666666666667
1879,,,5.219444444444444
1880,,,5.222222222222222
1881,,,5.225
1882,,,5.227777777777778
1883,,,5.230555555555555
1884,,,5.233333333333333
1885,,,5.236111111111111
1886,,,5.238888888888889
1887,,,5.241666666666666
1888,,,5.2444444444444445
1889,,,5.247222222222222
1890,,,5.25
1891,,,5.252777777777778
1892,,,5.2555555555555555
1893,,,5.258333333333334
1894,,,5.261111111111111
1895,,,5.263888888888889
1896,,,5.266666666666667
1897,,,5.269444444444445
1898,,,5.272222222222222
1899,,,5.275
1900,,,5.277777777777778
1901,,,5.280555555555556
1902,,,5.283333333333333
1903,,,5.286111111111111
1904,,,5.288888888888889
1905,,,5.291666666666667
1906,,,5.294444444444444
1907,,,5.2972222222222225
1908,,,5.3
1909,,,5.302777777777778
1910,,,5.305555555555555
1911,,,5.308333333333334
1912,,,5.311111111111111
1913,,,5.313888888888889
1914,,,5.316666666666666
1915,,,5.319444444444445
1916,,,5.322222222222222
1917,,,5.325
1918,,,5.3277777777777775
1919,,,5.330555555555556
1920,,,5.333333333333333
1921,,,5.336111111111111
1922,,,5.338888888888889
1923,,,5.341666666666667
1924,,,5.344444444444444
1925,,,5.347222222222222
1926,,,5.35
1927,,,5.352777777777778
1928,,,5.355555555555555
1929,,,5.358333333333333
1930,,,5.361111111111111
1931,,,5.363888888888889
1932,,,5.366666666666666
1933,,,5.3694444444444445
1934,,,5.372222222222222
1935,,,5.375
1936,,,5.377777777777778
1937,,,5.3805555555555555
1938,,,5.383333333333334
1939,,,5.386111111111111
1940,,,5.388888888888889
1941,,,5.391666666666667
1942,,,5.394444444444445
1943,,,5.397222222222222
1944,,,5.4
1945,,,5.402777777777778
1946,,,5.405555555555556
1947,,,5.408333333333333
1948,,,5.411111111111111
1949,,,5.413888888888889
1950,,,5.416666666666667
1951,,,5.419444444444444
1952,,,5.4222222222222225
1953,,,5.425
1954,,,5.427777777777778
1955,,,5.430555555555555
1956,,,5.433333333333334
1957,,,5.436111111111111
1958,,,5.438888888888889
1959,,,5.441666666666666
1960,,,5.444444444444445
1961,,,5.447222222222222
1962,,,5.45
1963,,,5.4527777777777775
1964,,,5.455555555555556
1965,,,5.458333333333333
1966,,,5.461111111111111
1967,,,5.463888888888889
1968,,,5.466666666666667
1969,,,5.469444444444444
1970,,,5.472222222222222
1971,,,5.475
1972,,,5.477777777777778
1973,,,5.480555555555555
1974,,,5.483333333333333
1975,,,5.486111111111111
1976,,,5.488888888888889
1977,,,5.491666666666666
1978,,,5.4944444444444445
1979,,,5.497222222222222
1980,,,5.5
1981,,,5.502777777777778
1982,,,5.5055555555555555
1983,,,5.508333333333334
1984,,,5.511111111111111
1985,,,5.513888888888889
1986,,,5.516666666666667
1987,,,5.519444444444445
1988,,,5.522222222222222
1989,,,5.525
1990,,,5.527777777777778
1991,,,5.530555555555556
1992,,,5.533333333333333
1993,,,5.536111111111111
1994,,,5.538888888888889
1995,,,5.541666666666667
1996,,,5.544444444444444
1997,,,5.5472222222222225
1998,,,5.55
1999,,,5.552777777777778
2000,,,5.555555555555555
2001,,,5.558333333333334
2002,,,5.561111111111111
2003,,,5.563888888888889
2004,,,5.566666666666666
2005,,,5.569444444444445
2006,,,5.572222222222222
2007,,,5.575
2008,,,5.5777777777777775
2009,,,5.580555555555556
2010,,,5.583333333333333
2011,,,5.586111111111111
2012,,,5.588888888888889
2013,,,5.591666666666667
2014,,,5.594444444444444
2015,,,5.597222222222222
2016,,,5.6
2017,,,5.602777777777778
2018,,,5.605555555555555
2019,,,5.608333333333333
2020,,,5.611111111111111
2021,,,5.613888888888889
2022,,,5.616666666666666
2023,,,5.6194444444444445
2024,,,5.622222222222222
2025,,,5.625
2026,,,5.627777777777778
2027,,,5.6305555555555555
2028,,,5.633333333333334
2029,,,5.636111111111111
2030,,,5.638888888888889
2031,,,5.641666666666667
2032,,,5.644444444444445
2033,,,5.647222222222222
2034,,,5.65
2035,,,5.652777777777778
2036,,,5.655555555555556
2037,,,5.658333333333333
2038,,,5.661111111111111
2039,,,5.663888888888889
2040,,,5.666666666666667
2041,,,5.669444444444444
2042,,,5.6722222222222225
2043,,,5.675
2044,,,5.677777777777778
2045,,,5.680555555555555
2046,,,5.683333333333334
2047,,,5.686111111111111
2048,,,5.688888888888889
2049,,,5.691666666666666
2050,,,5.694444444444445
2051,,,5.697222222222222
2052,,,5.7
2053,,,5.7027777777777775
2054,,,5.705555555555556
2055,,,5.708333333333333
2056,,,5.711111111111111
2057,,,5.713888888888889
2058,,,5.716666666666667
2059,,,5.719444444444444
2060,,,5.722222222222222
2061,,,5.725
2062,,,5.727777777777778
2063,,,5.730555555555555
2064,,,5.733333333333333
2065,,,5.736111111111111
2066,,,5.738888888888889
2067,,,5.741666666666666
2068,,,5.7444444444444445
2069,,,5.747222222222222
2070,,,5.75
2071,,,5.752777777777778
2072,,,5.7555555555555555
2073,,,5.758333333333334
2074,,,5.761111111111111
2075,,,5.763888888888889
2076,,,5.766666666666667
2077,,,5.769444444444445
2078,,,5.772222222222222
2079,,,5.775
2080,,,5.777777777777778
2081,,,5.780555555555556
2082,,,5.783333333333333
2083,,,5.786111111111111
2084,,,5.788888888888889
2085,,,5.791666666666667
2086,,,5.794444444444444
2087,,,5.7972222222222225
2088,,,5.8
2089,,,5.802777777777778
2090,,,5.805555555555555
2091,,,5.808333333333334
2092,,,5.811111111111111
2093,,,5.813888888888889
2094,,,5.816666666666666
2095,,,5.819444444444445
2096,,,5.822222222222222
2097,,,5.825
2098,,,5.8277777777777775
2099,,,5.830555555555556
2100,,,5.833333333333333
2101,,,5.836111111111111
2102,,,5.838888888888889
2103,,,5.841666666666667
2104,,,5.844444444444444
2105,,,5.847222222222222
2106,,,5.85
2107,,,5.852777777777778
2108,,,5.855555555555555
2109,,,5.858333333333333
2110,,,5.861111111111111
2111,,,5.863888888888889
2112,,,5.866666666666666
2113,,,5.8694444444444445
2114,,,5.872222222222222
2115,,,5.875
2116,,,5.877777777777778
2117,,,5.8805555555555555
2118,,,5.883333333333334
2119,,,5.886111111111111
2120,,,5.888888888888889
2121,,,5.891666666666667
2122,,,5.894444444444445
2123,,,5.897222222222222
2124,,,5.9
2125,,,5.902777777777778
2126,,,5.905555555555556
2127,,,5.908333333333333
2128,,,5.911111111111111
2129,,,5.913888888888889
2130,,,5.916666666666667
2131,,,5.919444444444444
2132,,,5.9222222222222225
2133,,,5.925
2134,,,5.927777777777778
2135,,,5.930555555555555
2136,,,5.933333333333334
2137,,,5.936111111111111
2138,,,5.938888888888889
2139,,,5.941666666666666
2140,,,5.944444444444445
2141,,,5.947222222222222
2142,,,5.95
2143,,,5.9527777777777775
2144,,,5.955555555555556
2145,,,5.958333333333333
2146,,,5.961111111111111
2147,,,5.963888888888889
2148,,,5.966666666666667
2149,,,5.969444444444444
2150,,,5.972222222222222
2151,,,5.975
2152,,,5.977777777777778
2153,,,5.980555555555555
2154,,,5.983333333333333
2155,,,5.986111111111111
2156,,,5.988888888888889
2157,,,5.991666666666666
2158,,,5.9944444444444445
2159,,,5.997222222222222
2160,,,6.0
2161,,,6.002777777777778
2162,,,6.0055555555555555
2163,,,6.008333333333334
2164,,,6.011111111111111
2165,,,6.013888888888889
2166,,,6.016666666666667
2167,,,6.019444444444445
2168,,,6.022222222222222
2169,,,6.025
2170,,,6.027777777777778
2171,,,6.030555555555556
2172,,,6.033333333333333
2173,,,6.036111111111111
2174,,,6.038888888888889
2175,,,6.041666666666667
2176,,,6.044444444444444
2177,,,6.0472222222222225
2178,,,6.05
2179,,,6.052777777777778
2180,,,6.055555555555555
2181,,,6.058333333333334
2182,,,6.061111111111111
2183,,,6.063888888888889
2184,,,6.066666666666666
2185,,,6.069444444444445
2186,,,6.072222222222222
2187,,,6.075
2188,,,6.0777777777777775
2189,,,6.080555555555556
2190,,,6.083333333333333
2191,,,6.086111111111111
2192,,,6.088888888888889
2193,,,6.091666666666667
2194,,,6.094444444444444
2195,,,6.097222222222222
2196,,,6.1
2197,,,6.102777777777778
2198,,,6.105555555555555
2199,,,6.108333333333333
2200,,,6.111111111111111
2201,,,6.113888888888889
2202,,,6.116666666666666
2203,,,6.1194444444444445
2204,,,6.122222222222222
2205,,,6.125
2206,,,6.127777777777778
2207,,,6.1305555555555555
2208,,,6.133333333333334
2209,,,6.136111111111111
2210,,,6.138888888888889
2211,,,6.141666666666667
2212,,,6.144444444444445
2213,,,6.147222222222222
2214,,,6.15
2215,,,6.152777777777778
2216,,,6.155555555555556
2217,,,6.158333333333333
2218,,,6.161111111111111
2219,,,6.163888888888889
2220,,,6.166666666666667
2221,,,6.169444444444444
2222,,,6.1722222222222225
2223,,,6.175
2224,,,6.177777777777778
2225,,,6.180555555555555
2226,,,6.183333333333334
2227,,,6.186111111111111
2228,,,6.188888888888889
2229,,,6.191666666666666
2230,,,6.194444444444445
2231,,,6.197222222222222
2232,,,6.2
2233,,,6.2027777777777775
2234,,,6.205555555555556
2235,,,6.208333333333333
2236,,,6.211111111111111
2237,,,6.213888888888889
2238,,,6.216666666666667
2239,,,6.219444444444444
2240,,,6.222222222222222
2241,,,6.225
2242,,,6.227777777777778
2243,,,6.230555555555555
2244,,,6.233333333333333
2245,,,6.236111111111111
2246,,,6.238888888888889
2247,,,6.241666666666666
2248,,,6.2444444444444445
2249,,,6.247222222222222
2250,,,6.25
2251,,,6.252777777777778
2252,,,6.2555555555555555
2253,,,6.258333333333334
2254,,,6.261111111111111
2255,,,6.263888888888889
2256,,,6.266666666666667
2257,,,6.269444444444445
2258,,,6.272222222222222
2259,,,6.275
2260,,,6.277777777777778
2261,,,6.280555555555556
2262,,,6.283333333333333
2263,,,6.286111111111111
2264,,,6.288888888888889
2265,,,6.291666666666667
2266,,,6.294444444444444
2267,,,6.2972222222222225
2268,,,6.3
2269,,,6.302777777777778
2270,,,6.305555555555555
2271,,,6.308333333333334
2272,,,6.311111111111111
2273,,,6.313888888888889
2274,,,6.316666666666666
2275,,,6.319444444444445
2276,,,6.322222222222222
2277,,,6.325
2278,,,6.3277777777777775
2279,,,6.330555555555556
2280,,,6.333333333333333
2281,,,6.336111111111111
2282,,,6.338888888888889
2283,,,6.341666666666667
2284,,,6.344444444444444
2285,,,6.347222222222222
2286,,,6.35
2287,,,6.352777777777778
2288,,,6.355555555555555
2289,,,6.358333333333333
2290,,,6.361111111111111
2291,,,6.363888888888889
2292,,,6.366666666666666
2293,,,6.3694444444444445
2294,,,6.372222222222222
2295,,,6.375
2296,,,6.377777777777778
2297,,,6.3805555555555555
2298,,,6.383333333333334
2299,,,6.386111111111111
2300,,,6.388888888888889
2301,,,6.391666666666667
2302,,,6.394444444444445
2303,,,6.397222222222222
2304,,,6.4
2305,,,6.402777777777778
2306,,,6.405555555555556
2307,,,6.408333333333333
2308,,,6.411111111111111
2309,,,6.413888888888889
2310,,,6.416666666666667
2311,,,6.419444444444444
2312,,,6.4222222222222225
2313,,,6.425
2314,,,6.427777777777778
2315,,,6.430555555555555
2316,,,6.433333333333334
2317,,,6.436111111111111
2318,,,6.438888888888889
2319,,,6.441666666666666
2320,,,6.444444444444445
2321,,,6.447222222222222
2322,,,6.45
2323,,,6.4527777777777775
2324,,,6.455555555555556
2325,,,6.458333333333333
2326,,,6.461111111111111
2327,,,6.463888888888889
2328,,,6.466666666666667
2329,,,6.469444444444444
2330,,,6.472222222222222
2331,,,6.475
2332,,,6.477777777777778
2333,,,6.480555555555555
2334,,,6.483333333333333
2335,,,6.486111111111111
2336,,,6.488888888888889
2337,,,6.491666666666666
2338,,,6.4944444444444445
2339,,,6.497222222222222
2340,,,6.5
2341,,,6.502777777777778
2342,,,6.5055555555555555
2343,,,6.508333333333334
2344,,,6.511111111111111
2345,,,6.513888888888889
2346,,,6.516666666666667
2347,,,6.519444444444445
2348,,,6.522222222222222
2349,,,6.525
2350,,,6.527777777777778
2351,,,6.530555555555556
2352,,,6.533333333333333
2353,,,6.536111111111111
2354,,,6.538888888888889
2355,,,6.541666666666667
2356,,,6.544444444444444
2357,,,6.5472222222222225
2358,,,6.55
2359,,,6.552777777777778
2360,,,6.555555555555555
2361,,,6.558333333333334
2362,,,6.561111111111111
2363,,,6.563888888888889
2364,,,6.566666666666666
2365,,,6.569444444444445
2366,,,6.572222222222222
2367,,,6.575
2368,,,6.5777777777777775
2369,,,6.580555555555556
2370,,,6.583333333333333
2371,,,6.586111111111111
2372,,,6.588888888888889
2373,,,6.591666666666667
2374,,,6.594444444444444
2375,,,6.597222222222222
2376,,,6.6
2377,,,6.602777777777778
2378,,,6.605555555555555
2379,,,6.608333333333333
2380,,,6.611111111111111
2381,,,6.613888888888889
2382,,,6.616666666666666
2383,,,6.6194444444444445
2384,,,6.622222222222222
2385,,,6.625
2386,,,6.627777777777778
2387,,,6.6305555555555555
2388,,,6.633333333333334
2389,,,6.636111111111111
2390,,,6.638888888888889
2391,,,6.641666666666667
2392,,,6.644444444444445
2393,,,6.647222222222222
2394,,,6.65
2395,,,6.652777777777778
2396,,,6.655555555555556
2397,,,6.658333333333333
2398,,,6.661111111111111
2399,,,6.663888888888889
2400,,,6.666666666666667
2401,,,6.669444444444444
2402,,,6.6722222222222225
2403,,,6.675
2404,,,6.677777777777778
2405,,,6.680555555555555
2406,,,6.683333333333334
2407,,,6.686111111111111
2408,,,6.688888888888889
2409,,,6.691666666666666
2410,,,6.694444444444445
2411,,,6.697222222222222
2412,,,6.7
2413,,,6.7027777777777775
2414,,,6.705555555555556
2415,,,6.708333333333333
2416,,,6.711111111111111
2417,,,6.713888888888889
2418,,,6.716666666666667
2419,,,6.719444444444444
2420,,,6.722222222222222
2421,,,6.725
2422,,,6.727777777777778
2423,,,6.730555555555555
2424,,,6.733333333333333
2425,,,6.736111111111111
2426,,,6.738888888888889
2427,,,6.741666666666666
2428,,,6.7444444444444445
2429,,,6.747222222222222
2430,,,6.75
2431,,,6.752777777777778
2432,,,6.7555555555555555
2433,,,6.758333333333334
2434,,,6.761111111111111
2435,,,6.763888888888889
2436,,,6.766666666666667
2437,,,6.769444444444445
2438,,,6.772222222222222
2439,,,6.775
2440,,,6.777777777777778
2441,,,6.780555555555556
2442,,,6.783333333333333
2443,,,6.786111111111111
2444,,,6.788888888888889
2445,,,6.791666666666667
2446,,,6.794444444444444
2447,,,6.7972222222222225
2448,,,6.8
2449,,,6.802777777777778
2450,,,6.805555555555555
2451,,,6.808333333333334
2452,,,6.811111111111111
2453,,,6.813888888888889
2454,,,6.816666666666666
2455,,,6.819444444444445
2456,,,6.822222222222222
2457,,,6.825
2458,,,6.8277777777777775
2459,,,6.830555555555556
2460,,,6.833333333333333
2461,,,6.836111111111111
2462,,,6.838888888888889
2463,,,6.841666666666667
2464,,,6.844444444444444
2465,,,6.847222222222222
2466,,,6.85
2467,,,6.852777777777778
2468,,,6.855555555555555
2469,,,6.858333333333333
2470,,,6.861111111111111
2471,,,6.863888888888889
2472,,,6.866666666666666
2473,,,6.8694444444444445
2474,,,6.872222222222222
2475,,,6.875
2476,,,6.877777777777778
2477,,,6.8805555555555555
2478,,,6.883333333333334
2479,,,6.886111111111111
2480,,,6.888888888888889
2481,,,6.891666666666667
2482,,,6.894444444444445
2483,,,6.897222222222222
2484,,,6.9
2485,,,6.902777777777778
2486,,,6.905555555555556
2487,,,6.908333333333333
2488,,,6.911111111111111
2489,,,6.913888888888889
2490,,,6.916666666666667
2491,,,6.919444444444444
2492,,,6.9222222222222225
2493,,,6.925
2494,,,6.927777777777778
2495,,,6.930555555555555
2496,,,6.933333333333334
2497,,,6.936111111111111
2498,,,6.938888888888889
2499,,,6.941666666666666
2500,,,6.944444444444445
2501,,,6.947222222222222
2502,,,6.95
2503,,,6.9527777777777775
2504,,,6.955555555555556
2505,,,6.958333333333333
2506,,,6.961111111111111
2507,,,6.963888888888889
2508,,,6.966666666666667
2509,,,6.969444444444444
2510,,,6.972222222222222
2511,,,6.975
2512,,,6.977777777777778
2513,,,6.980555555555555
2514,,,6.983333333333333
2515,,,6.986111111111111
2516,,,6.988888888888889
2517,,,6.991666666666666
2518,,,6.9944444444444445
2519,,,6.997222222222222
2520,,,7.0
2521,,,7.002777777777778
2522,,,7.0055555555555555
2523,,,7.008333333333334
2524,,,7.011111111111111
2525,,,7.013888888888889
2526,,,7.016666666666667
2527,,,7.019444444444445
2528,,,7.022222222222222
2529,,,7.025
2530,,,7.027777777777778
2531,,,7.030555555555556
2532,,,7.033333333333333
2533,,,7.036111111111111
2534,,,7.038888888888889
2535,,,7.041666666666667
2536,,,7.044444444444444
2537,,,7.0472222222222225
2538,,,7.05
2539,,,7.052777777777778
2540,,,7.055555555555555
2541,,,7.058333333333334
2542,,,7.061111111111111
2543,,,7.063888888888889
2544,,,7.066666666666666
2545,,,7.069444444444445
2546,,,7.072222222222222
2547,,,7.075
2548,,,7.0777777777777775
2549,,,7.080555555555556
2550,,,7.083333333333333
2551,,,7.086111111111111
2552,,,7.088888888888889
2553,,,7.091666666666667
2554,,,7.094444444444444
2555,,,7.097222222222222
2556,,,7.1
2557,,,7.102777777777778
2558,,,7.105555555555555
2559,,,7.108333333333333
2560,,,7.111111111111111
2561,,,7.113888888888889
2562,,,7.116666666666666
2563,,,7.1194444444444445
2564,,,7.122222222222222
2565,,,7.125
2566,,,7.127777777777778
2567,,,7.1305555555555555
2568,,,7.133333333333334
2569,,,7.136111111111111
2570,,,7.138888888888889
2571,,,7.141666666666667
2572,,,7.144444444444445
2573,,,7.147222222222222
2574,,,7.15
2575,,,7.152777777777778
2576,,,7.155555555555556
2577,,,7.158333333333333
2578,,,7.161111111111111
2579,,,7.163888888888889
2580,,,7.166666666666667
2581,,,7.169444444444444
2582,,,7.1722222222222225
2583,,,7.175
2584,,,7.177777777777778
2585,,,7.180555555555555
2586,,,7.183333333333334
2587,,,7.186111111111111
2588,,,7.188888888888889
2589,,,7.191666666666666
2590,,,7.194444444444445
2591,,,7.197222222222222
2592,,,7.2
2593,,,7.2027777777777775
2594,,,7.205555555555556
2595,,,7.208333333333333
2596,,,7.211111111111111
2597,,,7.213888888888889
2598,,,7.216666666666667
2599,,,7.219444444444444
2600,,,7.222222222222222
2601,,,7.225
2602,,,7.227777777777778
2603,,,7.230555555555555
2604,,,7.233333333333333
2605,,,7.236111111111111
2606,,,7.238888888888889
2607,,,7.241666666666666
2608,,,7.2444444444444445
2609,,,7.247222222222222
2610,,,7.25
2611,,,7.252777777777778
2612,,,7.2555555555555555
2613,,,7.258333333333334
2614,,,7.261111111111111
2615,,,7.263888888888889
2616,,,7.266666666666667
2617,,,7.269444444444445
2618,,,7.272222222222222
2619,,,7.275
2620,,,7.277777777777778
2621,,,7.280555555555556
2622,,,7.283333333333333
2623,,,7.286111111111111
2624,,,7.288888888888889
2625,,,7.291666666666667
2626,,,7.294444444444444
2627,,,7.2972222222222225
2628,,,7.3
2629,,,7.302777777777778
2630,,,7.305555555555555
2631,,,7.308333333333334
2632,,,7.311111111111111
2633,,,7.313888888888889
2634,,,7.316666666666666
2635,,,7.319444444444445
2636,,,7.322222222222222
2637,,,7.325
2638,,,7.3277777777777775
2639,,,7.330555555555556
2640,,,7.333333333333333
2641,,,7.336111111111111
2642,,,7.338888888888889
2643,,,7.341666666666667
2644,,,7.344444444444444
2645,,,7.347222222222222
2646,,,7.35
2647,,,7.352777777777778
2648,,,7.355555555555555
2649,,,7.358333333333333
2650,,,7.361111111111111
2651,,,7.363888888888889
2652,,,7.366666666666666
2653,,,7.3694444444444445
2654,,,7.372222222222222
2655,,,7.375
2656,,,7.377777777777778
2657,,,7.3805555555555555
2658,,,7.383333333333334
2659,,,7.386111111111111
2660,,,7.388888888888889
2661,,,7.391666666666667
2662,,,7.394444444444445
2663,,,7.397222222222222
2664,,,7.4
2665,,,7.402777777777778
2666,,,7.405555555555556
2667,,,7.408333333333333
2668,,,7.411111111111111
2669,,,7.413888888888889
2670,,,7.416666666666667
2671,,,7.419444444444444
2672,,,7.4222222222222225
2673,,,7.425
2674,,,7.427777777777778
2675,,,7.430555555555555
2676,,,7.433333333333334
2677,,,7.436111111111111
2678,,,7.438888888888889
2679,,,7.441666666666666
2680,,,7.444444444444445
2681,,,7.447222222222222
2682,,,7.45
2683,,,7.4527777777777775
2684,,,7.455555555555556
2685,,,7.458333333333333
2686,,,7.461111111111111
2687,,,7.463888888888889
2688,,,7.466666666666667
2689,,,7.469444444444444
2690,,,7.472222222222222
2691,,,7.475
2692,,,7.477777777777778
2693,,,7.480555555555555
2694,,,7.483333333333333
2695,,,7.486111111111111
2696,,,7.488888888888889
2697,,,7.491666666666666
2698,,,7.4944444444444445
2699,,,7.497222222222222
2700,,,7.5
2701,,,7.502777777777778
2702,,,7.5055555555555555
2703,,,7.508333333333334
2704,,,7.511111111111111
2705,,,7.513888888888889
2706,,,7.516666666666667
2707,,,7.519444444444445
2708,,,7.522222222222222
2709,,,7.525
2710,,,7.527777777777778
2711,,,7.530555555555556
2712,,,7.533333333333333
2713,,,7.536111111111111
2714,,,7.538888888888889
2715,,,7.541666666666667
2716,,,7.544444444444444
2717,,,7.5472222222222225
2718,,,7.55
2719,,,7.552777777777778
2720,,,7.555555555555555
2721,,,7.558333333333334
2722,,,7.561111111111111
2723,,,7.563888888888889
2724,,,7.566666666666666
2725,,,7.569444444444445
2726,,,7.572222222222222
2727,,,7.575
2728,,,7.5777777777777775
2729,,,7.580555555555556
2730,,,7.583333333333333
2731,,,7.586111111111111
2732,,,7.588888888888889
2733,,,7.591666666666667
2734,,,7.594444444444444
2735,,,7.597222222222222
2736,,,7.6
2737,,,7.602777777777778
2738,,,7.605555555555555
2739,,,7.608333333333333
2740,,,7.611111111111111
2741,,,7.613888888888889
2742,,,7.616666666666666
2743,,,7.6194444444444445
2744,,,7.622222222222222
2745,,,7.625
2746,,,7.627777777777778
2747,,,7.6305555555555555
2748,,,7.633333333333334
2749,,,7.636111111111111
2750,,,7.638888888888889
2751,,,7.641666666666667
2752,,,7.644444444444445
2753,,,7.647222222222222
2754,,,7.65
2755,,,7.652777777777778
2756,,,7.655555555555556
2757,,,7.658333333333333
2758,,,7.661111111111111
2759,,,7.663888888888889
2760,,,7.666666666666667
2761,,,7.669444444444444
2762,,,7.6722222222222225
2763,,,7.675
2764,,,7.677777777777778
2765,,,7.680555555555555
2766,,,7.683333333333334
2767,,,7.686111111111111
2768,,,7.688888888888889
2769,,,7.691666666666666
2770,,,7.694444444444445
2771,,,7.697222222222222
2772,,,7.7
2773,,,7.7027777777777775
2774,,,7.705555555555556
2775,,,7.708333333333333
2776,,,7.711111111111111
2777,,,7.713888888888889
2778,,,7.716666666666667
2779,,,7.719444444444444
2780,,,7.722222222222222
2781,,,7.725
2782,,,7.727777777777778
2783,,,7.730555555555555
2784,,,7.733333333333333
2785,,,7.736111111111111
2786,,,7.738888888888889
2787,,,7.741666666666666
2788,,,7.7444444444444445
2789,,,7.747222222222222
2790,,,7.75
2791,,,7.752777777777778
2792,,,7.7555555555555555
2793,,,7.758333333333334
2794,,,7.761111111111111
2795,,,7.763888888888889
2796,,,7.766666666666667
2797,,,7.769444444444445
2798,,,7.772222222222222
2799,,,7.775
2800,,,7.777777777777778
2801,,,7.780555555555556
2802,,,7.783333333333333
2803,,,7.786111111111111
2804,,,7.788888888888889
2805,,,7.791666666666667
2806,,,7.794444444444444
2807,,,7.7972222222222225
2808,,,7.8
2809,,,7.802777777777778
2810,,,7.805555555555555
2811,,,7.808333333333334
2812,,,7.811111111111111
2813,,,7.813888888888889
2814,,,7.816666666666666
2815,,,7.819444444444445
2816,,,7.822222222222222
2817,,,7.825
2818,,,7.8277777777777775
2819,,,7.830555555555556
2820,,,7.833333333333333
2821,,,7.836111111111111
2822,,,7.838888888888889
2823,,,7.841666666666667
2824,,,7.844444444444444
2825,,,7.847222222222222
2826,,,7.85
2827,,,7.852777777777778
2828,,,7.855555555555555
2829,,,7.858333333333333
2830,,,7.861111111111111
2831,,,7.863888888888889
2832,,,7.866666666666666
2833,,,7.8694444444444445
2834,,,7.872222222222222
2835,,,7.875
2836,,,7.877777777777778
2837,,,7.8805555555555555
2838,,,7.883333333333334
2839,,,7.886111111111111
2840,,,7.888888888888889
2841,,,7.891666666666667
2842,,,7.894444444444445
2843,,,7.897222222222222
2844,,,7.9
2845,,,7.902777777777778
2846,,,7.905555555555556
2847,,,7.908333333333333
2848,,,7.911111111111111
2849,,,7.913888888888889
2850,,,7.916666666666667
2851,,,7.919444444444444
2852,,,7.9222222222222225
2853,,,7.925
2854,,,7.927777777777778
2855,,,7.930555555555555
2856,,,7.933333333333334
2857,,,7.936111111111111
2858,,,7.938888888888889
2859,,,7.941666666666666
2860,,,7.944444444444445
2861,,,7.947222222222222
2862,,,7.95
2863,,,7.9527777777777775
2864,,,7.955555555555556
2865,,,7.958333333333333
2866,,,7.961111111111111
2867,,,7.963888888888889
2868,,,7.966666666666667
2869,,,7.969444444444444
2870,,,7.972222222222222
2871,,,7.975
2872,,,7.977777777777778
2873,,,7.980555555555555
2874,,,7.983333333333333
2875,,,7.986111111111111
2876,,,7.988888888888889
2877,,,7.991666666666666
2878,,,7.9944444444444445
2879,,,7.997222222222222
2880,,,8.0
2881,,,8.002777777777778
2882,,,8.005555555555556
2883,,,8.008333333333333
2884,,,8.011111111111111
2885,,,8.01388888888889
2886,,,8.016666666666667
2887,,,8.019444444444444
2888,,,8.022222222222222
2889,,,8.025
2890,,,8.027777777777779
2891,,,8.030555555555555
2892,,,8.033333333333333
2893,,,8.036111111111111
2894,,,8.03888888888889
2895,,,8.041666666666666
2896,,,8.044444444444444
2897,,,8.047222222222222
2898,,,8.05
2899,,,8.052777777777777
2900,,,8.055555555555555
2901,,,8.058333333333334
2902,,,8.061111111111112
2903,,,8.063888888888888
2904,,,8.066666666666666
2905,,,8.069444444444445
2906,,,8.072222222222223
2907,,,8.075
2908,,,8.077777777777778
2909,,,8.080555555555556
2910,,,8.083333333333334
2911,,,8.08611111111111
2912,,,8.088888888888889
2913,,,8.091666666666667
2914,,,8.094444444444445
2915,,,8.097222222222221
2916,,,8.1
2917,,,8.102777777777778
2918,,,8.105555555555556
2919,,,8.108333333333333
2920,,,8.11111111111111
2921,,,8.113888888888889
2922,,,8.116666666666667
2923,,,8.119444444444444
2924,,,8.122222222222222
2925,,,8.125
2926,,,8.127777777777778
2927,,,8.130555555555556
2928,,,8.133333333333333
2929,,,8.136111111111111
2930,,,8.13888888888889
2931,,,8.141666666666667
2932,,,8.144444444444444
2933,,,8.147222222222222
2934,,,8.15
2935,,,8.152777777777779
2936,,,8.155555555555555
2937,,,8.158333333333333
2938,,,8.161111111111111
2939,,,8.16388888888889
2940,,,8.166666666666666
2941,,,8.169444444444444
2942,,,8.172222222222222
2943,,,8.175
2944,,,8.177777777777777
2945,,,8.180555555555555
2946,,,8.183333333333334
2947,,,8.186111111111112
2948,,,8.188888888888888
2949,,,8.191666666666666
2950,,,8.194444444444445
2951,,,8.197222222222223
2952,,,8.2
2953,,,8.202777777777778
2954,,,8.205555555555556
2955,,,8.208333333333334
2956,,,8.21111111111111
2957,,,8.213888888888889
2958,,,8.216666666666667
2959,,,8.219444444444445
2960,,,8.222222222222221
2961,,,8.225
2962,,,8.227777777777778
2963,,,8.230555555555556
2964,,,8.233333333333333
2965,,,8.23611111111111
2966,,,8.238888888888889
2967,,,8.241666666666667
2968,,,8.244444444444444
2969,,,8.247222222222222
2970,,,8.25
2971,,,8.252777777777778
2972,,,8.255555555555556
2973,,,8.258333333333333
2974,,,8.261111111111111
2975,,,8.26388888888889
2976,,,8.266666666666667
2977,,,8.269444444444444
2978,,,8.272222222222222
2979,,,8.275
2980,,,8.277777777777779
2981,,,8.280555555555555
2982,,,8.283333333333333
2983,,,8.286111111111111
2984,,,8.28888888888889
2985,,,8.291666666666666
2986,,,8.294444444444444
2987,,,8.297222222222222
2988,,,8.3
2989,,,8.302777777777777
2990,,,8.305555555555555
2991,,,8.308333333333334
2992,,,8.311111111111112
2993,,,8.313888888888888
2994,,,8.316666666666666
2995,,,8.319444444444445
2996,,,8.322222222222223
2997,,,8.325
2998,,,8.327777777777778
2999,,,8.330555555555556
3000,,,8.333333333333334
3001,,,8.33611111111111
3002,,,8.338888888888889
3003,,,8.341666666666667
3004,,,8.344444444444445
3005,,,8.347222222222221
3006,,,8.35
3007,,,8.352777777777778
3008,,,8.355555555555556
3009,,,8.358333333333333
3010,,,8.36111111111111
3011,,,8.363888888888889
3012,,,8.366666666666667
3013,,,8.369444444444444
3014,,,8.372222222222222
3015,,,8.375
3016,,,8.377777777777778
3017,,,8.380555555555556
3018,,,8.383333333333333
3019,,,8.386111111111111
3020,,,8.38888888888889
3021,,,8.391666666666667
3022,,,8.394444444444444
3023,,,8.397222222222222
3024,,,8.4
3025,,,8.402777777777779
3026,,,8.405555555555555
3027,,,8.408333333333333
3028,,,8.411111111111111
3029,,,8.41388888888889
3030,,,8.416666666666666
3031,,,8.419444444444444
3032,,,8.422222222222222
3033,,,8.425
3034,,,8.427777777777777
3035,,,8.430555555555555
3036,,,8.433333333333334
3037,,,8.436111111111112
3038,,,8.438888888888888
3039,,,8.441666666666666
3040,,,8.444444444444445
3041,,,8.447222222222223
3042,,,8.45
3043,,,8.452777777777778
3044,,,8.455555555555556
3045,,,8.458333333333334
3046,,,8.46111111111111
3047,,,8.463888888888889
3048,,,8.466666666666667
3049,,,8.469444444444445
3050,,,8.472222222222221
3051,,,8.475
3052,,,8.477777777777778
3053,,,8.480555555555556
3054,,,8.483333333333333
3055,,,8.48611111111111
3056,,,8.488888888888889
3057,,,8.491666666666667
3058,,,8.494444444444444
3059,,,8.497222222222222
3060,,,8.5
3061,,,8.502777777777778
3062,,,8.505555555555556
3063,,,8.508333333333333
3064,,,8.511111111111111
3065,,,8.51388888888889
3066,,,8.516666666666667
3067,,,8.519444444444444
3068,,,8.522222222222222
3069,,,8.525
3070,,,8.527777777777779
3071,,,8.530555555555555
3072,,,8.533333333333333
3073,,,8.536111111111111
3074,,,8.53888888888889
3075,,,8.541666666666666
3076,,,8.544444444444444
3077,,,8.547222222222222
3078,,,8.55
3079,,,8.552777777777777
3080,,,8.555555555555555
3081,,,8.558333333333334
3082,,,8.561111111111112
3083,,,8.563888888888888
3084,,,8.566666666666666
3085,,,8.569444444444445
3086,,,8.572222222222223
3087,,,8.575
3088,,,8.577777777777778
3089,,,8.580555555555556
3090,,,8.583333333333334
3091,,,8.58611111111111
3092,,,8.588888888888889
3093,,,8.591666666666667
3094,,,8.594444444444445
3095,,,8.597222222222221
3096,,,8.6
3097,,,8.602777777777778
3098,,,8.605555555555556
3099,,,8.608333333333333
3100,,,8.61111111111111
3101,,,8.613888888888889
3102,,,8.616666666666667
3103,,,8.619444444444444
3104,,,8.622222222222222
3105,,,8.625
3106,,,8.627777777777778
3107,,,8.630555555555556
3108,,,8.633333333333333
3109,,,8.636111111111111
3110,,,8.63888888888889
3111,,,8.641666666666667
3112,,,8.644444444444444
3113,,,8.647222222222222
3114,,,8.65
3115,,,8.652777777777779
3116,,,8.655555555555555
3117,,,8.658333333333333
3118,,,8.661111111111111
3119,,,8.66388888888889
3120,,,8.666666666666666
3121,,,8.669444444444444
3122,,,8.672222222222222
3123,,,8.675
3124,,,8.677777777777777
3125,,,8.680555555555555
3126,,,8.683333333333334
3127,,,8.686111111111112
3128,,,8.688888888888888
3129,,,8.691666666666666
3130,,,8.694444444444445
3131,,,8.697222222222223
3132,,,8.7
3133,,,8.702777777777778
3134,,,8.705555555555556
3135,,,8.708333333333334
3136,,,8.71111111111111
3137,,,8.713888888888889
3138,,,8.716666666666667
3139,,,8.719444444444445
3140,,,8.722222222222221
3141,,,8.725
3142,,,8.727777777777778
3143,,,8.730555555555556
3144,,,8.733333333333333
3145,,,8.73611111111111
3146,,,8.738888888888889
3147,,,8.741666666666667
3148,,,8.744444444444444
3149,,,8.747222222222222
3150,,,8.75
3151,,,8.752777777777778
3152,,,8.755555555555556
3153,,,8.758333333333333
3154,,,8.761111111111111
3155,,,8.76388888888889
3156,,,8.766666666666667
3157,,,8.769444444444444
3158,,,8.772222222222222
3159,,,8.775
3160,,,8.777777777777779
3161,,,8.780555555555555
3162,,,8.783333333333333
3163,,,8.786111111111111
3164,,,8.78888888888889
3165,,,8.791666666666666
3166,,,8.794444444444444
3167,,,8.797222222222222
3168,,,8.8
3169,,,8.802777777777777
3170,,,8.805555555555555
3171,,,8.808333333333334
3172,,,8.811111111111112
3173,,,8.813888888888888
3174,,,8.816666666666666
3175,,,8.819444444444445
3176,,,8.822222222222223
3177,,,8.825
3178,,,8.827777777777778
3179,,,8.830555555555556
3180,,,8.833333333333334
3181,,,8.83611111111111
3182,,,8.838888888888889
3183,,,8.841666666666667
3184,,,8.844444444444445
3185,,,8.847222222222221
3186,,,8.85
3187,,,8.852777777777778
3188,,,8.855555555555556
3189,,,8.858333333333333
3190,,,8.86111111111111
3191,,,8.863888888888889
3192,,,8.866666666666667
3193,,,8.869444444444444
3194,,,8.872222222222222
3195,,,8.875
3196,,,8.877777777777778
3197,,,8.880555555555556
3198,,,8.883333333333333
3199,,,8.886111111111111
3200,,,8.88888888888889
3201,,,8.891666666666667
3202,,,8.894444444444444
3203,,,8.897222222222222
3204,,,8.9
3205,,,8.902777777777779
3206,,,8.905555555555555
3207,,,8.908333333333333
3208,,,8.911111111111111
3209,,,8.91388888888889
3210,,,8.916666666666666
3211,,,8.919444444444444
3212,,,8.922222222222222
3213,,,8.925
3214,,,8.927777777777777
3215,,,8.930555555555555
3216,,,8.933333333333334
3217,,,8.936111111111112
3218,,,8.938888888888888
3219,,,8.941666666666666
3220,,,8.944444444444445
3221,,,8.947222222222223
3222,,,8.95
3223,,,8.952777777777778
3224,,,8.955555555555556
3225,,,8.958333333333334
3226,,,8.96111111111111
3227,,,8.963888888888889
3228,,,8.966666666666667
3229,,,8.969444444444445
3230,,,8.972222222222221
3231,,,8.975
3232,,,8.977777777777778
3233,,,8.980555555555556
3234,,,8.983333333333333
3235,,,8.98611111111111
3236,,,8.988888888888889
3237,,,8.991666666666667
3238,,,8.994444444444444
3239,,,8.997222222222222
3240,,,9.0
3241,,,9.002777777777778
3242,,,9.005555555555556
3243,,,9.008333333333333
3244,,,9.011111111111111
3245,,,9.01388888888889
3246,,,9.016666666666667
3247,,,9.019444444444444
3248,,,9.022222222222222
3249,,,9.025
3250,,,9.027777777777779
3251,,,9.030555555555555
3252,,,9.033333333333333
3253,,,9.036111111111111
3254,,,9.03888888888889
3255,,,9.041666666666666
3256,,,9.044444444444444
3257,,,9.047222222222222
3258,,,9.05
3259,,,9.052777777777777
3260,,,9.055555555555555
3261,,,9.058333333333334
3262,,,9.061111111111112
3263,,,9.063888888888888
3264,,,9.066666666666666
3265,,,9.069444444444445
3266,,,9.072222222222223
3267,,,9.075
3268,,,9.077777777777778
3269,,,9.080555555555556
3270,,,9.083333333333334
3271,,,9.08611111111111
3272,,,9.088888888888889
3273,,,9.091666666666667
3274,,,9.094444444444445
3275,,,9.097222222222221
3276,,,9.1
3277,,,9.102777777777778
3278,,,9.105555555555556
3279,,,9.108333333333333
3280,,,9.11111111111111
3281,,,9.113888888888889
3282,,,9.116666666666667
3283,,,9.119444444444444
3284,,,9.122222222222222
3285,,,9.125
3286,,,9.127777777777778
3287,,,9.130555555555556
3288,,,9.133333333333333
3289,,,9.136111111111111
3290,,,9.13888888888889
3291,,,9.141666666666667
3292,,,9.144444444444444
3293,,,9.147222222222222
3294,,,9.15
3295,,,9.152777777777779
3296,,,9.155555555555555
3297,,,9.158333333333333
3298,,,9.161111111111111
3299,,,9.16388888888889
3300,,,9.166666666666666
3301,,,9.169444444444444
3302,,,9.172222222222222
3303,,,9.175
3304,,,9.177777777777777
3305,,,9.180555555555555
3306,,,9.183333333333334
3307,,,9.186111111111112
3308,,,9.188888888888888
3309,,,9.191666666666666
3310,,,9.194444444444445
3311,,,9.197222222222223
3312,,,9.2
3313,,,9.202777777777778
3314,,,9.205555555555556
3315,,,9.208333333333334
3316,,,9.21111111111111
3317,,,9.213888888888889
3318,,,9.216666666666667
3319,,,9.219444444444445
3320,,,9.222222222222221
3321,,,9.225
3322,,,9.227777777777778
3323,,,9.230555555555556
3324,,,9.233333333333333
3325,,,9.23611111111111
3326,,,9.238888888888889
3327,,,9.241666666666667
3328,,,9.244444444444444
3329,,,9.247222222222222
3330,,,9.25
3331,,,9.252777777777778
3332,,,9.255555555555556
3333,,,9.258333333333333
3334,,,9.261111111111111
3335,,,9.26388888888889
3336,,,9.266666666666667
3337,,,9.269444444444444
3338,,,9.272222222222222
3339,,,9.275
3340,,,9.277777777777779
3341,,,9.280555555555555
3342,,,9.283333333333333
3343,,,9.286111111111111
3344,,,9.28888888888889
3345,,,9.291666666666666
3346,,,9.294444444444444
3347,,,9.297222222222222
3348,,,9.3
3349,,,9.302777777777777
3350,,,9.305555555555555
3351,,,9.308333333333334
3352,,,9.311111111111112
3353,,,9.313888888888888
3354,,,9.316666666666666
3355,,,9.319444444444445
3356,,,9.322222222222223
3357,,,9.325
3358,,,9.327777777777778
3359,,,9.330555555555556
3360,,,9.333333333333334
3361,,,9.33611111111111
3362,,,9.338888888888889
3363,,,9.341666666666667
3364,,,9.344444444444445
3365,,,9.347222222222221
3366,,,9.35
3367,,,9.352777777777778
3368,,,9.355555555555556
3369,,,9.358333333333333
3370,,,9.36111111111111
3371,,,9.363888888888889
3372,,,9.366666666666667
3373,,,9.369444444444444
3374,,,9.372222222222222
3375,,,9.375
3376,,,9.377777777777778
3377,,,9.380555555555556
3378,,,9.383333333333333
3379,,,9.386111111111111
3380,,,9.38888888888889
3381,,,9.391666666666667
3382,,,9.394444444444444
3383,,,9.397222222222222
3384,,,9.4
3385,,,9.402777777777779
3386,,,9.405555555555555
3387,,,9.408333333333333
3388,,,9.411111111111111
3389,,,9.41388888888889
3390,,,9.416666666666666
3391,,,9.419444444444444
3392,,,9.422222222222222
3393,,,9.425
3394,,,9.427777777777777
3395,,,9.430555555555555
3396,,,9.433333333333334
3397,,,9.436111111111112
3398,,,9.438888888888888
3399,,,9.441666666666666
3400,,,9.444444444444445
3401,,,9.447222222222223
3402,,,9.45
3403,,,9.452777777777778
3404,,,9.455555555555556
3405,,,9.458333333333334
3406,,,9.46111111111111
3407,,,9.463888888888889
3408,,,9.466666666666667
3409,,,9.469444444444445
3410,,,9.472222222222221
3411,,,9.475
3412,,,9.477777777777778
3413,,,9.480555555555556
3414,,,9.483333333333333
3415,,,9.48611111111111
3416,,,9.488888888888889
3417,,,9.491666666666667
3418,,,9.494444444444444
3419,,,9.497222222222222
3420,,,9.5
3421,,,9.502777777777778
3422,,,9.505555555555556
3423,,,9.508333333333333
3424,,,9.511111111111111
3425,,,9.51388888888889
3426,,,9.516666666666667
3427,,,9.519444444444444
3428,,,9.522222222222222
3429,,,9.525
3430,,,9.527777777777779
3431,,,9.530555555555555
3432,,,9.533333333333333
3433,,,9.536111111111111
3434,,,9.53888888888889
3435,,,9.541666666666666
3436,,,9.544444444444444
3437,,,9.547222222222222
3438,,,9.55
3439,,,9.552777777777777
3440,,,9.555555555555555
3441,,,9.558333333333334
3442,,,9.561111111111112
3443,,,9.563888888888888
3444,,,9.566666666666666
3445,,,9.569444444444445
3446,,,9.572222222222223
3447,,,9.575
3448,,,9.577777777777778
3449,,,9.580555555555556
3450,,,9.583333333333334
3451,,,9.58611111111111
3452,,,9.588888888888889
3453,,,9.591666666666667
3454,,,9.594444444444445
3455,,,9.597222222222221
3456,,,9.6
3457,,,9.602777777777778
3458,,,9.605555555555556
3459,,,9.608333333333333
3460,,,9.61111111111111
3461,,,9.613888888888889
3462,,,9.616666666666667
3463,,,9.619444444444444
3464,,,9.622222222222222
3465,,,9.625
3466,,,9.627777777777778
3467,,,9.630555555555556
3468,,,9.633333333333333
3469,,,9.636111111111111
3470,,,9.63888888888889
3471,,,9.641666666666667
3472,,,9.644444444444444
3473,,,9.647222222222222
3474,,,9.65
3475,,,9.652777777777779
3476,,,9.655555555555555
3477,,,9.658333333333333
3478,,,9.661111111111111
3479,,,9.66388888888889
3480,,,9.666666666666666
3481,,,9.669444444444444
3482,,,9.672222222222222
3483,,,9.675
3484,,,9.677777777777777
3485,,,9.680555555555555
3486,,,9.683333333333334
3487,,,9.686111111111112
3488,,,9.688888888888888
3489,,,9.691666666666666
3490,,,9.694444444444445
3491,,,9.697222222222223
3492,,,9.7
3493,,,9.702777777777778
3494,,,9.705555555555556
3495,,,9.708333333333334
3496,,,9.71111111111111
3497,,,9.713888888888889
3498,,,9.716666666666667
3499,,,9.719444444444445
3500,,,9.722222222222221
3501,,,9.725
3502,,,9.727777777777778
3503,,,9.730555555555556
3504,,,9.733333333333333
3505,,,9.73611111111111
3506,,,9.738888888888889
3507,,,9.741666666666667
3508,,,9.744444444444444
3509,,,9.747222222222222
3510,,,9.75
3511,,,9.752777777777778
3512,,,9.755555555555556
3513,,,9.758333333333333
3514,,,9.761111111111111
3515,,,9.76388888888889
3516,,,9.766666666666667
3517,,,9.769444444444444
3518,,,9.772222222222222
3519,,,9.775
3520,,,9.777777777777779
3521,,,9.780555555555555
3522,,,9.783333333333333
3523,,,9.786111111111111
3524,,,9.78888888888889
3525,,,9.791666666666666
3526,,,9.794444444444444
3527,,,9.797222222222222
3528,,,9.8
3529,,,9.802777777777777
3530,,,9.805555555555555
3531,,,9.808333333333334
3532,,,9.811111111111112
3533,,,9.813888888888888
3534,,,9.816666666666666
3535,,,9.819444444444445
3536,,,9.822222222222223
3537,,,9.825
3538,,,9.827777777777778
3539,,,9.830555555555556
3540,,,9.833333333333334
3541,,,9.83611111111111
3542,,,9.838888888888889
3543,,,9.841666666666667
3544,,,9.844444444444445
3545,,,9.847222222222221
3546,,,9.85
3547,,,9.852777777777778
3548,,,9.855555555555556
3549,,,9.858333333333333
3550,,,9.86111111111111
3551,,,9.863888888888889
3552,,,9.866666666666667
3553,,,9.869444444444444
3554,,,9.872222222222222
3555,,,9.875
3556,,,9.877777777777778
3557,,,9.880555555555556
3558,,,9.883333333333333
3559,,,9.886111111111111
3560,,,9.88888888888889
3561,,,9.891666666666667
3562,,,9.894444444444444
3563,,,9.897222222222222
3564,,,9.9
3565,,,9.902777777777779
3566,,,9.905555555555555
3567,,,9.908333333333333
3568,,,9.911111111111111
3569,,,9.91388888888889
3570,,,9.916666666666666
3571,,,9.919444444444444
3572,,,9.922222222222222
3573,,,9.925
3574,,,9.927777777777777
3575,,,9.930555555555555
3576,,,9.933333333333334
3577,,,9.936111111111112
3578,,,9.938888888888888
3579,,,9.941666666666666
3580,,,9.944444444444445
3581,,,9.947222222222223
3582,,,9.95
3583,,,9.952777777777778
3584,,,9.955555555555556
3585,,,9.958333333333334
3586,,,9.96111111111111
3587,,,9.963888888888889
3588,,,9.966666666666667
3589,,,9.969444444444445
3590,,,9.972222222222221
3591,,,9.975
3592,,,9.977777777777778
3593,,,9.980555555555556
3594,,,9.983333333333333
3595,,,9.98611111111111
3596,,,9.988888888888889
3597,,,9.991666666666667
3598,,,9.994444444444444
3599,,,9.997222222222222
3600,,,10.0
3601,,,10.002777777777778
3602,,,10.005555555555556
3603,,,10.008333333333333
3604,,,10.011111111111111
3605,,,10.01388888888889
3606,,,10.016666666666667
3607,,,10.019444444444444
3608,,,10.022222222222222
3609,,,10.025
3610,,,10.027777777777779
3611,,,10.030555555555555
3612,,,10.033333333333333
3613,,,10.036111111111111
3614,,,10.03888888888889
3615,,,10.041666666666666
3616,,,10.044444444444444
3617,,,10.047222222222222
3618,,,10.05
3619,,,10.052777777777777
3620,,,10.055555555555555
3621,,,10.058333333333334
3622,,,10.061111111111112
3623,,,10.063888888888888
3624,,,10.066666666666666
3625,,,10.069444444444445
3626,,,10.072222222222223
3627,,,10.075
3628,,,10.077777777777778
3629,,,10.080555555555556
3630,,,10.083333333333334
3631,,,10.08611111111111
3632,,,10.088888888888889
3633,,,10.091666666666667
3634,,,10.094444444444445
3635,,,10.097222222222221
3636,,,10.1
3637,,,10.102777777777778
3638,,,10.105555555555556
3639,,,10.108333333333333
3640,,,10.11111111111111
3641,,,10.113888888888889
3642,,,10.116666666666667
3643,,,10.119444444444444
3644,,,10.122222222222222
3645,,,10.125
3646,,,10.127777777777778
3647,,,10.130555555555556
3648,,,10.133333333333333
3649,,,10.136111111111111
3650,,,10.13888888888889
3651,,,10.141666666666667
3652,,,10.144444444444444
3653,,,10.147222222222222
3654,,,10.15
3655,,,10.152777777777779
3656,,,10.155555555555555
3657,,,10.158333333333333
3658,,,10.161111111111111
3659,,,10.16388888888889
3660,,,10.166666666666666
3661,,,10.169444444444444
3662,,,10.172222222222222
3663,,,10.175
3664,,,10.177777777777777
3665,,,10.180555555555555
3666,,,10.183333333333334
3667,,,10.186111111111112
3668,,,10.188888888888888
3669,,,10.191666666666666
3670,,,10.194444444444445
3671,,,10.197222222222223
3672,,,10.2
3673,,,10.202777777777778
3674,,,10.205555555555556
3675,,,10.208333333333334
3676,,,10.21111111111111
3677,,,10.213888888888889
3678,,,10.216666666666667
3679,,,10.219444444444445
3680,,,10.222222222222221
3681,,,10.225
3682,,,10.227777777777778
3683,,,10.230555555555556
3684,,,10.233333333333333
3685,,,10.23611111111111
3686,,,10.238888888888889
3687,,,10.241666666666667
3688,,,10.244444444444444
3689,,,10.247222222222222
3690,,,10.25
3691,,,10.252777777777778
3692,,,10.255555555555556
3693,,,10.258333333333333
3694,,,10.261111111111111
3695,,,10.26388888888889
3696,,,10.266666666666667
3697,,,10.269444444444444
3698,,,10.272222222222222
3699,,,10.275
3700,,,10.277777777777779
3701,,,10.280555555555555
3702,,,10.283333333333333
3703,,,10.286111111111111
3704,,,10.28888888888889
3705,,,10.291666666666666
3706,,,10.294444444444444
3707,,,10.297222222222222
3708,,,10.3
3709,,,10.302777777777777
3710,,,10.305555555555555
3711,,,10.308333333333334
3712,,,10.311111111111112
3713,,,10.313888888888888
3714,,,10.316666666666666
3715,,,10.319444444444445
3716,,,10.322222222222223
3717,,,10.325
3718,,,10.327777777777778
3719,,,10.330555555555556
3720,,,10.333333333333334
3721,,,10.33611111111111
3722,,,10.338888888888889
3723,,,10.341666666666667
3724,,,10.344444444444445
3725,,,10.347222222222221
3726,,,10.35
3727,,,10.352777777777778
3728,,,10.355555555555556
3729,,,10.358333333333333
3730,,,10.36111111111111
3731,,,10.363888888888889
3732,,,10.366666666666667
3733,,,10.369444444444444
3734,,,10.372222222222222
3735,,,10.375
3736,,,10.377777777777778
3737,,,10.380555555555556
3738,,,10.383333333333333
3739,,,10.386111111111111
3740,,,10.38888888888889
3741,,,10.391666666666667
3742,,,10.394444444444444
3743,,,10.397222222222222
3744,,,10.4
3745,,,10.402777777777779
3746,,,10.405555555555555
3747,,,10.408333333333333
3748,,,10.411111111111111
3749,,,10.41388888888889
3750,,,10.416666666666666
3751,,,10.419444444444444
3752,,,10.422222222222222
3753,,,10.425
3754,,,10.427777777777777
3755,,,10.430555555555555
3756,,,10.433333333333334
3757,,,10.436111111111112
3758,,,10.438888888888888
3759,,,10.441666666666666
3760,,,10.444444444444445
3761,,,10.447222222222223
3762,,,10.45
3763,,,10.452777777777778
3764,,,10.455555555555556
3765,,,10.458333333333334
3766,,,10.46111111111111
3767,,,10.463888888888889
3768,,,10.466666666666667
3769,,,10.469444444444445
3770,,,10.472222222222221
3771,,,10.475
3772,,,10.477777777777778
3773,,,10.480555555555556
3774,,,10.483333333333333
3775,,,10.48611111111111
3776,,,10.488888888888889
3777,,,10.491666666666667
3778,,,10.494444444444444
3779,,,10.497222222222222
3780,,,10.5
3781,,,10.502777777777778
3782,,,10.505555555555556
3783,,,10.508333333333333
3784,,,10.511111111111111
3785,,,10.51388888888889
3786,,,10.516666666666667
3787,,,10.519444444444444
3788,,,10.522222222222222
3789,,,10.525
3790,,,10.527777777777779
3791,,,10.530555555555555
3792,,,10.533333333333333
3793,,,10.536111111111111
3794,,,10.53888888888889
3795,,,10.541666666666666
3796,,,10.544444444444444
3797,,,10.547222222222222
3798,,,10.55
3799,,,10.552777777777777
3800,,,10.555555555555555
3801,,,10.558333333333334
3802,,,10.561111111111112
3803,,,10.563888888888888
3804,,,10.566666666666666
3805,,,10.569444444444445
3806,,,10.572222222222223
3807,,,10.575
3808,,,10.577777777777778
3809,,,10.580555555555556
3810,,,10.583333333333334
3811,,,10.58611111111111
3812,,,10.588888888888889
3813,,,10.591666666666667
3814,,,10.594444444444445
3815,,,10.597222222222221
3816,,,10.6
3817,,,10.602777777777778
3818,,,10.605555555555556
3819,,,10.608333333333333
3820,,,10.61111111111111
3821,,,10.613888888888889
3822,,,10.616666666666667
3823,,,10.619444444444444
3824,,,10.622222222222222
3825,,,10.625
3826,,,10.627777777777778
3827,,,10.630555555555556
3828,,,10.633333333333333
3829,,,10.636111111111111
3830,,,10.63888888888889
3831,,,10.641666666666667
3832,,,10.644444444444444
3833,,,10.647222222222222
3834,,,10.65
3835,,,10.652777777777779
3836,,,10.655555555555555
3837,,,10.658333333333333
3838,,,10.661111111111111
3839,,,10.66388888888889
3840,,,10.666666666666666
3841,,,10.669444444444444
3842,,,10.672222222222222
3843,,,10.675
3844,,,10.677777777777777
3845,,,10.680555555555555
3846,,,10.683333333333334
3847,,,10.686111111111112
3848,,,10.688888888888888
3849,,,10.691666666666666
3850,,,10.694444444444445
3851,,,10.697222222222223
3852,,,10.7
3853,,,10.702777777777778
3854,,,10.705555555555556
3855,,,10.708333333333334
3856,,,10.71111111111111
3857,,,10.713888888888889
3858,,,10.716666666666667
3859,,,10.719444444444445
3860,,,10.722222222222221
3861,,,10.725
3862,,,10.727777777777778
3863,,,10.730555555555556
3864,,,10.733333333333333
3865,,,10.73611111111111
3866,,,10.738888888888889
3867,,,10.741666666666667
3868,,,10.744444444444444
3869,,,10.747222222222222
3870,,,10.75
3871,,,10.752777777777778
3872,,,10.755555555555556
3873,,,10.758333333333333
3874,,,10.761111111111111
3875,,,10.76388888888889
3876,,,10.766666666666667
3877,,,10.769444444444444
3878,,,10.772222222222222
3879,,,10.775
3880,,,10.777777777777779
3881,,,10.780555555555555
3882,,,10.783333333333333
3883,,,10.786111111111111
3884,,,10.78888888888889
3885,,,10.791666666666666
3886,,,10.794444444444444
3887,,,10.797222222222222
3888,,,10.8
3889,,,10.802777777777777
3890,,,10.805555555555555
3891,,,10.808333333333334
3892,,,10.811111111111112
3893,,,10.813888888888888
3894,,,10.816666666666666
3895,,,10.819444444444445
3896,,,10.822222222222223
3897,,,10.825
3898,,,10.827777777777778
3899,,,10.830555555555556
3900,,,10.833333333333334
3901,,,10.83611111111111
3902,,,10.838888888888889
3903,,,10.841666666666667
3904,,,10.844444444444445
3905,,,10.847222222222221
3906,,,10.85
3907,,,10.852777777777778
3908,,,10.855555555555556
3909,,,10.858333333333333
3910,,,10.86111111111111
3911,,,10.863888888888889
3912,,,10.866666666666667
3913,,,10.869444444444444
3914,,,10.872222222222222
3915,,,10.875
3916,,,10.877777777777778
3917,,,10.880555555555556
3918,,,10.883333333333333
3919,,,10.886111111111111
3920,,,10.88888888888889
3921,,,10.891666666666667
3922,,,10.894444444444444
3923,,,10.897222222222222
3924,,,10.9
3925,,,10.902777777777779
3926,,,10.905555555555555
3927,,,10.908333333333333
3928,,,10.911111111111111
3929,,,10.91388888888889
3930,,,10.916666666666666
3931,,,10.919444444444444
3932,,,10.922222222222222
3933,,,10.925
3934,,,10.927777777777777
3935,,,10.930555555555555
3936,,,10.933333333333334
3937,,,10.936111111111112
3938,,,10.938888888888888
3939,,,10.941666666666666
3940,,,10.944444444444445
3941,,,10.947222222222223
3942,,,10.95
3943,,,10.952777777777778
3944,,,10.955555555555556
3945,,,10.958333333333334
3946,,,10.96111111111111
3947,,,10.963888888888889
3948,,,10.966666666666667
3949,,,10.969444444444445
3950,,,10.972222222222221
3951,,,10.975
3952,,,10.977777777777778
3953,,,10.980555555555556
3954,,,10.983333333333333
3955,,,10.98611111111111
3956,,,10.988888888888889
3957,,,10.991666666666667
3958,,,10.994444444444444
3959,,,10.997222222222222
3960,,,11.0
3961,,,11.002777777777778
3962,,,11.005555555555556
3963,,,11.008333333333333
3964,,,11.011111111111111
3965,,,11.01388888888889
3966,,,11.016666666666667
3967,,,11.019444444444444
3968,,,11.022222222222222
3969,,,11.025
3970,,,11.027777777777779
3971,,,11.030555555555555
3972,,,11.033333333333333
3973,,,11.036111111111111
3974,,,11.03888888888889
3975,,,11.041666666666666
3976,,,11.044444444444444
3977,,,11.047222222222222
3978,,,11.05
3979,,,11.052777777777777
3980,,,11.055555555555555
3981,,,11.058333333333334
3982,,,11.061111111111112
3983,,,11.063888888888888
3984,,,11.066666666666666
3985,,,11.069444444444445
3986,,,11.072222222222223
3987,,,11.075
3988,,,11.077777777777778
3989,,,11.080555555555556
3990,,,11.083333333333334
3991,,,11.08611111111111
3992,,,11.088888888888889
3993,,,11.091666666666667
3994,,,11.094444444444445
3995,,,11.097222222222221
3996,,,11.1
3997,,,11.102777777777778
3998,,,11.105555555555556
3999,,,11.108333333333333
4000,,,11.11111111111111
4001,,,11.113888888888889
4002,,,11.116666666666667
4003,,,11.119444444444444
4004,,,11.122222222222222
4005,,,11.125
4006,,,11.127777777777778
4007,,,11.130555555555556
4008,,,11.133333333333333
4009,,,11.136111111111111
4010,,,11.13888888888889
4011,,,11.141666666666667
4012,,,11.144444444444444
4013,,,11.147222222222222
4014,,,11.15
4015,,,11.152777777777779
4016,,,11.155555555555555
4017,,,11.158333333333333
4018,,,11.161111111111111
4019,,,11.16388888888889
4020,,,11.166666666666666
4021,,,11.169444444444444
4022,,,11.172222222222222
4023,,,11.175
4024,,,11.177777777777777
4025,,,11.180555555555555
4026,,,11.183333333333334
4027,,,11.186111111111112
4028,,,11.188888888888888
4029,,,11.191666666666666
4030,,,11.194444444444445
4031,,,11.197222222222223
4032,,,11.2
4033,,,11.202777777777778
4034,,,11.205555555555556
4035,,,11.208333333333334
4036,,,11.21111111111111
4037,,,11.213888888888889
4038,,,11.216666666666667
4039,,,11.219444444444445
4040,,,11.222222222222221
4041,,,11.225
4042,,,11.227777777777778
4043,,,11.230555555555556
4044,,,11.233333333333333
4045,,,11.23611111111111
4046,,,11.238888888888889
4047,,,11.241666666666667
4048,,,11.244444444444444
4049,,,11.247222222222222
4050,,,11.25
4051,,,11.252777777777778
4052,,,11.255555555555556
4053,,,11.258333333333333
4054,,,11.261111111111111
4055,,,11.26388888888889
4056,,,11.266666666666667
4057,,,11.269444444444444
4058,,,11.272222222222222
4059,,,11.275
4060,,,11.277777777777779
4061,,,11.280555555555555
4062,,,11.283333333333333
4063,,,11.286111111111111
4064,,,11.28888888888889
4065,,,11.291666666666666
4066,,,11.294444444444444
4067,,,11.297222222222222
4068,,,11.3
4069,,,11.302777777777777
4070,,,11.305555555555555
4071,,,11.308333333333334
4072,,,11.311111111111112
4073,,,11.313888888888888
4074,,,11.316666666666666
4075,,,11.319444444444445
4076,,,11.322222222222223
4077,,,11.325
4078,,,11.327777777777778
4079,,,11.330555555555556
4080,,,11.333333333333334
4081,,,11.33611111111111
4082,,,11.338888888888889
4083,,,11.341666666666667
4084,,,11.344444444444445
4085,,,11.347222222222221
4086,,,11.35
4087,,,11.352777777777778
4088,,,11.355555555555556
4089,,,11.358333333333333
4090,,,11.36111111111111
4091,,,11.363888888888889
4092,,,11.366666666666667
4093,,,11.369444444444444
4094,,,11.372222222222222
4095,,,11.375
4096,,,11.377777777777778
4097,,,11.380555555555556
4098,,,11.383333333333333
4099,,,11.386111111111111
4100,,,11.38888888888889
4101,,,11.391666666666667
4102,,,11.394444444444444
4103,,,11.397222222222222
4104,,,11.4
4105,,,11.402777777777779
4106,,,11.405555555555555
4107,,,11.408333333333333
4108,,,11.411111111111111
4109,,,11.41388888888889
4110,,,11.416666666666666
4111,,,11.419444444444444
4112,,,11.422222222222222
4113,,,11.425
4114,,,11.427777777777777
4115,,,11.430555555555555
4116,,,11.433333333333334
4117,,,11.436111111111112
4118,,,11.438888888888888
4119,,,11.441666666666666
4120,,,11.444444444444445
4121,,,11.447222222222223
4122,,,11.45
4123,,,11.452777777777778
4124,,,11.455555555555556
4125,,,11.458333333333334
4126,,,11.46111111111111
4127,,,11.463888888888889
4128,,,11.466666666666667
4129,,,11.469444444444445
4130,,,11.472222222222221
4131,,,11.475
4132,,,11.477777777777778
4133,,,11.480555555555556
4134,,,11.483333333333333
4135,,,11.48611111111111
4136,,,11.488888888888889
4137,,,11.491666666666667
4138,,,11.494444444444444
4139,,,11.497222222222222
4140,,,11.5
4141,,,11.502777777777778
4142,,,11.505555555555556
4143,,,11.508333333333333
4144,,,11.511111111111111
4145,,,11.51388888888889
4146,,,11.516666666666667
4147,,,11.519444444444444
4148,,,11.522222222222222
4149,,,11.525
4150,,,11.527777777777779
4151,,,11.530555555555555
4152,,,11.533333333333333
4153,,,11.536111111111111
4154,,,11.53888888888889
4155,,,11.541666666666666
4156,,,11.544444444444444
4157,,,11.547222222222222
4158,,,11.55
4159,,,11.552777777777777
4160,,,11.555555555555555
4161,,,11.558333333333334
4162,,,11.561111111111112
4163,,,11.563888888888888
4164,,,11.566666666666666
4165,,,11.569444444444445
4166,,,11.572222222222223
4167,,,11.575
4168,,,11.577777777777778
4169,,,11.580555555555556
4170,,,11.583333333333334
4171,,,11.58611111111111
4172,,,11.588888888888889
4173,,,11.591666666666667
4174,,,11.594444444444445
4175,,,11.597222222222221
4176,,,11.6
4177,,,11.602777777777778
4178,,,11.605555555555556
4179,,,11.608333333333333
4180,,,11.61111111111111
4181,,,11.613888888888889
4182,,,11.616666666666667
4183,,,11.619444444444444
4184,,,11.622222222222222
4185,,,11.625
4186,,,11.627777777777778
4187,,,11.630555555555556
4188,,,11.633333333333333
4189,,,11.636111111111111
4190,,,11.63888888888889
4191,,,11.641666666666667
4192,,,11.644444444444444
4193,,,11.647222222222222
4194,,,11.65
4195,,,11.652777777777779
4196,,,11.655555555555555
4197,,,11.658333333333333
4198,,,11.661111111111111
4199,,,11.66388888888889
4200,,,11.666666666666666
4201,,,11.669444444444444
4202,,,11.672222222222222
4203,,,11.675
4204,,,11.677777777777777
4205,,,11.680555555555555
4206,,,11.683333333333334
4207,,,11.686111111111112
4208,,,11.688888888888888
4209,,,11.691666666666666
4210,,,11.694444444444445
4211,,,11.697222222222223
4212,,,11.7
4213,,,11.702777777777778
4214,,,11.705555555555556
4215,,,11.708333333333334
4216,,,11.71111111111111
4217,,,11.713888888888889
4218,,,11.716666666666667
4219,,,11.719444444444445
4220,,,11.722222222222221
4221,,,11.725
4222,,,11.727777777777778
4223,,,11.730555555555556
4224,,,11.733333333333333
4225,,,11.73611111111111
4226,,,11.738888888888889
4227,,,11.741666666666667
4228,,,11.744444444444444
4229,,,11.747222222222222
4230,,,11.75
4231,,,11.752777777777778
4232,,,11.755555555555556
4233,,,11.758333333333333
4234,,,11.761111111111111
4235,,,11.76388888888889
4236,,,11.766666666666667
4237,,,11.769444444444444
4238,,,11.772222222222222
4239,,,11.775
4240,,,11.777777777777779
4241,,,11.780555555555555
4242,,,11.783333333333333
4243,,,11.786111111111111
4244,,,11.78888888888889
4245,,,11.791666666666666
4246,,,11.794444444444444
4247,,,11.797222222222222
4248,,,11.8
4249,,,11.802777777777777
4250,,,11.805555555555555
4251,,,11.808333333333334
4252,,,11.811111111111112
4253,,,11.813888888888888
4254,,,11.816666666666666
4255,,,11.819444444444445
4256,,,11.822222222222223
4257,,,11.825
4258,,,11.827777777777778
4259,,,11.830555555555556
4260,,,11.833333333333334
4261,,,11.83611111111111
4262,,,11.838888888888889
4263,,,11.841666666666667
4264,,,11.844444444444445
4265,,,11.847222222222221
4266,,,11.85
4267,,,11.852777777777778
4268,,,11.855555555555556
4269,,,11.858333333333333
4270,,,11.86111111111111
4271,,,11.863888888888889
4272,,,11.866666666666667
4273,,,11.869444444444444
4274,,,11.872222222222222
4275,,,11.875
4276,,,11.877777777777778
4277,,,11.880555555555556
4278,,,11.883333333333333
4279,,,11.886111111111111
4280,,,11.88888888888889
4281,,,11.891666666666667
4282,,,11.894444444444444
4283,,,11.897222222222222
4284,,,11.9
4285,,,11.902777777777779
4286,,,11.905555555555555
4287,,,11.908333333333333
4288,,,11.911111111111111
4289,,,11.91388888888889
4290,,,11.916666666666666
4291,,,11.919444444444444
4292,,,11.922222222222222
4293,,,11.925
4294,,,11.927777777777777
4295,,,11.930555555555555
4296,,,11.933333333333334
4297,,,11.936111111111112
4298,,,11.938888888888888
4299,,,11.941666666666666
4300,,,11.944444444444445
4301,,,11.947222222222223
4302,,,11.95
4303,,,11.952777777777778
4304,,,11.955555555555556
4305,,,11.958333333333334
4306,,,11.96111111111111
4307,,,11.963888888888889
4308,,,11.966666666666667
4309,,,11.969444444444445
4310,,,11.972222222222221
4311,,,11.975
4312,,,11.977777777777778
4313,,,11.980555555555556
4314,,,11.983333333333333
4315,,,11.98611111111111
4316,,,11.988888888888889
4317,,,11.991666666666667
4318,,,11.994444444444444
4319,,,11.997222222222222
4320,,,12.0
4321,,,12.002777777777778
4322,,,12.005555555555556
4323,,,12.008333333333333
4324,,,12.011111111111111
4325,,,12.01388888888889
4326,,,12.016666666666667
4327,,,12.019444444444444
4328,,,12.022222222222222
4329,,,12.025
4330,,,12.027777777777779
4331,,,12.030555555555555
4332,,,12.033333333333333
4333,,,12.036111111111111
4334,,,12.03888888888889
4335,,,12.041666666666666
4336,,,12.044444444444444
4337,,,12.047222222222222
4338,,,12.05
4339,,,12.052777777777777
4340,,,12.055555555555555
4341,,,12.058333333333334
4342,,,12.061111111111112
4343,,,12.063888888888888
4344,,,12.066666666666666
4345,,,12.069444444444445
4346,,,12.072222222222223
4347,,,12.075
4348,,,12.077777777777778
4349,,,12.080555555555556
4350,,,12.083333333333334
4351,,,12.08611111111111
4352,,,12.088888888888889
4353,,,12.091666666666667
4354,,,12.094444444444445
4355,,,12.097222222222221
4356,,,12.1
4357,,,12.102777777777778
4358,,,12.105555555555556
4359,,,12.108333333333333
4360,,,12.11111111111111
4361,,,12.113888888888889
4362,,,12.116666666666667
4363,,,12.119444444444444
4364,,,12.122222222222222
4365,,,12.125
4366,,,12.127777777777778
4367,,,12.130555555555556
4368,,,12.133333333333333
4369,,,12.136111111111111
4370,,,12.13888888888889
4371,,,12.141666666666667
4372,,,12.144444444444444
4373,,,12.147222222222222
4374,,,12.15
4375,,,12.152777777777779
4376,,,12.155555555555555
4377,,,12.158333333333333
4378,,,12.161111111111111
4379,,,12.16388888888889
4380,,,12.166666666666666
4381,,,12.169444444444444
4382,,,12.172222222222222
4383,,,12.175
4384,,,12.177777777777777
4385,,,12.180555555555555
4386,,,12.183333333333334
4387,,,12.186111111111112
4388,,,12.188888888888888
4389,,,12.191666666666666
4390,,,12.194444444444445
4391,,,12.197222222222223
4392,,,12.2
4393,,,12.202777777777778
4394,,,12.205555555555556
4395,,,12.208333333333334
4396,,,12.21111111111111
4397,,,12.213888888888889
4398,,,12.216666666666667
4399,,,12.219444444444445
4400,,,12.222222222222221
4401,,,12.225
4402,,,12.227777777777778
4403,,,12.230555555555556
4404,,,12.233333333333333
4405,,,12.23611111111111
4406,,,12.238888888888889
4407,,,12.241666666666667
4408,,,12.244444444444444
4409,,,12.247222222222222
4410,,,12.25
4411,,,12.252777777777778
4412,,,12.255555555555556
4413,,,12.258333333333333
4414,,,12.261111111111111
4415,,,12.26388888888889
4416,,,12.266666666666667
4417,,,12.269444444444444
4418,,,12.272222222222222
4419,,,12.275
4420,,,12.277777777777779
4421,,,12.280555555555555
4422,,,12.283333333333333
4423,,,12.286111111111111
4424,,,12.28888888888889
4425,,,12.291666666666666
4426,,,12.294444444444444
4427,,,12.297222222222222
4428,,,12.3
4429,,,12.302777777777777
4430,,,12.305555555555555
4431,,,12.308333333333334
4432,,,12.311111111111112
4433,,,12.313888888888888
4434,,,12.316666666666666
4435,,,12.319444444444445
4436,,,12.322222222222223
4437,,,12.325
4438,,,12.327777777777778
4439,,,12.330555555555556
4440,,,12.333333333333334
4441,,,12.33611111111111
4442,,,12.338888888888889
4443,,,12.341666666666667
4444,,,12.344444444444445
4445,,,12.347222222222221
4446,,,12.35
4447,,,12.352777777777778
4448,,,12.355555555555556
4449,,,12.358333333333333
4450,,,12.36111111111111
4451,,,12.363888888888889
4452,,,12.366666666666667
4453,,,12.369444444444444
4454,,,12.372222222222222
4455,,,12.375
4456,,,12.377777777777778
4457,,,12.380555555555556
4458,,,12.383333333333333
4459,,,12.386111111111111
4460,,,12.38888888888889
4461,,,12.391666666666667
4462,,,12.394444444444444
4463,,,12.397222222222222
4464,,,12.4
4465,,,12.402777777777779
4466,,,12.405555555555555
4467,,,12.408333333333333
4468,,,12.411111111111111
4469,,,12.41388888888889
4470,,,12.416666666666666
4471,,,12.419444444444444
4472,,,12.422222222222222
4473,,,12.425
4474,,,12.427777777777777
4475,,,12.430555555555555
4476,,,12.433333333333334
4477,,,12.436111111111112
4478,,,12.438888888888888
4479,,,12.441666666666666
4480,,,12.444444444444445
4481,,,12.447222222222223
4482,,,12.45
4483,,,12.452777777777778
4484,,,12.455555555555556
4485,,,12.458333333333334
4486,,,12.46111111111111
4487,,,12.463888888888889
4488,,,12.466666666666667
4489,,,12.469444444444445
4490,,,12.472222222222221
4491,,,12.475
4492,,,12.477777777777778
4493,,,12.480555555555556
4494,,,12.483333333333333
4495,,,12.48611111111111
4496,,,12.488888888888889
4497,,,12.491666666666667
4498,,,12.494444444444444
4499,,,12.497222222222222
4500,,,12.5
4501,,,12.502777777777778
4502,,,12.505555555555556
4503,,,12.508333333333333
4504,,,12.511111111111111
4505,,,12.51388888888889
4506,,,12.516666666666667
4507,,,12.519444444444444
4508,,,12.522222222222222
4509,,,12.525
4510,,,12.527777777777779
4511,,,12.530555555555555
4512,,,12.533333333333333
4513,,,12.536111111111111
4514,,,12.53888888888889
4515,,,12.541666666666666
4516,,,12.544444444444444
4517,,,12.547222222222222
4518,,,12.55
4519,,,12.552777777777777
4520,,,12.555555555555555
4521,,,12.558333333333334
4522,,,12.561111111111112
4523,,,12.563888888888888
4524,,,12.566666666666666
4525,,,12.569444444444445
4526,,,12.572222222222223
4527,,,12.575
4528,,,12.577777777777778
4529,,,12.580555555555556
4530,,,12.583333333333334
4531,,,12.58611111111111
4532,,,12.588888888888889
4533,,,12.591666666666667
4534,,,12.594444444444445
4535,,,12.597222222222221
4536,,,12.6
4537,,,12.602777777777778
4538,,,12.605555555555556
4539,,,12.608333333333333
4540,,,12.61111111111111
4541,,,12.613888888888889
4542,,,12.616666666666667
4543,,,12.619444444444444
4544,,,12.622222222222222
4545,,,12.625
4546,,,12.627777777777778
4547,,,12.630555555555556
4548,,,12.633333333333333
4549,,,12.636111111111111
4550,,,12.63888888888889
4551,,,12.641666666666667
4552,,,12.644444444444444
4553,,,12.647222222222222
4554,,,12.65
4555,,,12.652777777777779
4556,,,12.655555555555555
4557,,,12.658333333333333
4558,,,12.661111111111111
4559,,,12.66388888888889
4560,,,12.666666666666666
4561,,,12.669444444444444
4562,,,12.672222222222222
4563,,,12.675
4564,,,12.677777777777777
4565,,,12.680555555555555
4566,,,12.683333333333334
4567,,,12.686111111111112
4568,,,12.688888888888888
4569,,,12.691666666666666
4570,,,12.694444444444445
4571,,,12.697222222222223
4572,,,12.7
4573,,,12.702777777777778
4574,,,12.705555555555556
4575,,,12.708333333333334
4576,,,12.71111111111111
4577,,,12.713888888888889
4578,,,12.716666666666667
4579,,,12.719444444444445
4580,,,12.722222222222221
4581,,,12.725
4582,,,12.727777777777778
4583,,,12.730555555555556
4584,,,12.733333333333333
4585,,,12.73611111111111
4586,,,12.738888888888889
4587,,,12.741666666666667
4588,,,12.744444444444444
4589,,,12.747222222222222
4590,,,12.75
4591,,,12.752777777777778
4592,,,12.755555555555556
4593,,,12.758333333333333
4594,,,12.761111111111111
4595,,,12.76388888888889
4596,,,12.766666666666667
4597,,,12.769444444444444
4598,,,12.772222222222222
4599,,,12.775
4600,,,12.777777777777779
4601,,,12.780555555555555
4602,,,12.783333333333333
4603,,,12.786111111111111
4604,,,12.78888888888889
4605,,,12.791666666666666
4606,,,12.794444444444444
4607,,,12.797222222222222
4608,,,12.8
4609,,,12.802777777777777
4610,,,12.805555555555555
4611,,,12.808333333333334
4612,,,12.811111111111112
4613,,,12.813888888888888
4614,,,12.816666666666666
4615,,,12.819444444444445
4616,,,12.822222222222223
4617,,,12.825
4618,,,12.827777777777778
4619,,,12.830555555555556
4620,,,12.833333333333334
4621,,,12.83611111111111
4622,,,12.838888888888889
4623,,,12.841666666666667
4624,,,12.844444444444445
4625,,,12.847222222222221
4626,,,12.85
4627,,,12.852777777777778
4628,,,12.855555555555556
4629,,,12.858333333333333
4630,,,12.86111111111111
4631,,,12.863888888888889
4632,,,12.866666666666667
4633,,,12.869444444444444
4634,,,12.872222222222222
4635,,,12.875
4636,,,12.877777777777778
4637,,,12.880555555555556
4638,,,12.883333333333333
4639,,,12.886111111111111
4640,,,12.88888888888889
4641,,,12.891666666666667
4642,,,12.894444444444444
4643,,,12.897222222222222
4644,,,12.9
4645,,,12.902777777777779
4646,,,12.905555555555555
4647,,,12.908333333333333
4648,,,12.911111111111111
4649,,,12.91388888888889
4650,,,12.916666666666666
4651,,,12.919444444444444
4652,,,12.922222222222222
4653,,,12.925
4654,,,12.927777777777777
4655,,,12.930555555555555
4656,,,12.933333333333334
4657,,,12.936111111111112
4658,,,12.938888888888888
4659,,,12.941666666666666
4660,,,12.944444444444445
4661,,,12.947222222222223
4662,,,12.95
4663,,,12.952777777777778
4664,,,12.955555555555556
4665,,,12.958333333333334
4666,,,12.96111111111111
4667,,,12.963888888888889
4668,,,12.966666666666667
4669,,,12.969444444444445
4670,,,12.972222222222221
4671,,,12.975
4672,,,12.977777777777778
4673,,,12.980555555555556
4674,,,12.983333333333333
4675,,,12.98611111111111
4676,,,12.988888888888889
4677,,,12.991666666666667
4678,,,12.994444444444444
4679,,,12.997222222222222
4680,,,13.0
4681,,,13.002777777777778
4682,,,13.005555555555556
4683,,,13.008333333333333
4684,,,13.011111111111111
4685,,,13.01388888888889
4686,,,13.016666666666667
4687,,,13.019444444444444
4688,,,13.022222222222222
4689,,,13.025
4690,,,13.027777777777779
4691,,,13.030555555555555
4692,,,13.033333333333333
4693,,,13.036111111111111
4694,,,13.03888888888889
4695,,,13.041666666666666
4696,,,13.044444444444444
4697,,,13.047222222222222
4698,,,13.05
4699,,,13.052777777777777
4700,,,13.055555555555555
4701,,,13.058333333333334
4702,,,13.061111111111112
4703,,,13.063888888888888
4704,,,13.066666666666666
4705,,,13.069444444444445
4706,,,13.072222222222223
4707,,,13.075
4708,,,13.077777777777778
4709,,,13.080555555555556
4710,,,13.083333333333334
4711,,,13.08611111111111
4712,,,13.088888888888889
4713,,,13.091666666666667
4714,,,13.094444444444445
4715,,,13.097222222222221
4716,,,13.1
4717,,,13.102777777777778
4718,,,13.105555555555556
4719,,,13.108333333333333
4720,,,13.11111111111111
4721,,,13.113888888888889
4722,,,13.116666666666667
4723,,,13.119444444444444
4724,,,13.122222222222222
4725,,,13.125
4726,,,13.127777777777778
4727,,,13.130555555555556
4728,,,13.133333333333333
4729,,,13.136111111111111
4730,,,13.13888888888889
4731,,,13.141666666666667
4732,,,13.144444444444444
4733,,,13.147222222222222
4734,,,13.15
4735,,,13.152777777777779
4736,,,13.155555555555555
4737,,,13.158333333333333
4738,,,13.161111111111111
4739,,,13.16388888888889
4740,,,13.166666666666666
4741,,,13.169444444444444
4742,,,13.172222222222222
4743,,,13.175
4744,,,13.177777777777777
4745,,,13.180555555555555
4746,,,13.183333333333334
4747,,,13.186111111111112
4748,,,13.188888888888888
4749,,,13.191666666666666
4750,,,13.194444444444445
4751,,,13.197222222222223
4752,,,13.2
4753,,,13.202777777777778
4754,,,13.205555555555556
4755,,,13.208333333333334
4756,,,13.21111111111111
4757,,,13.213888888888889
4758,,,13.216666666666667
4759,,,13.219444444444445
4760,,,13.222222222222221
4761,,,13.225
4762,,,13.227777777777778
4763,,,13.230555555555556
4764,,,13.233333333333333
4765,,,13.23611111111111
4766,,,13.238888888888889
4767,,,13.241666666666667
4768,,,13.244444444444444
4769,,,13.247222222222222
4770,,,13.25
4771,,,13.252777777777778
4772,,,13.255555555555556
4773,,,13.258333333333333
4774,,,13.261111111111111
4775,,,13.26388888888889
4776,,,13.266666666666667
4777,,,13.269444444444444
4778,,,13.272222222222222
4779,,,13.275
4780,,,13.277777777777779
4781,,,13.280555555555555
4782,,,13.283333333333333
4783,,,13.286111111111111
4784,,,13.28888888888889
4785,,,13.291666666666666
4786,,,13.294444444444444
4787,,,13.297222222222222
4788,,,13.3
4789,,,13.302777777777777
4790,,,13.305555555555555
4791,,,13.308333333333334
4792,,,13.311111111111112
4793,,,13.313888888888888
4794,,,13.316666666666666
4795,,,13.319444444444445
4796,,,13.322222222222223
4797,,,13.325
4798,,,13.327777777777778
4799,,,13.330555555555556
4800,,,13.333333333333334
4801,,,13.33611111111111
4802,,,13.338888888888889
4803,,,13.341666666666667
4804,,,13.344444444444445
4805,,,13.347222222222221
4806,,,13.35
4807,,,13.352777777777778
4808,,,13.355555555555556
4809,,,13.358333333333333
4810,,,13.36111111111111
4811,,,13.363888888888889
4812,,,13.366666666666667
4813,,,13.369444444444444
4814,,,13.372222222222222
4815,,,13.375
4816,,,13.377777777777778
4817,,,13.380555555555556
4818,,,13.383333333333333
4819,,,13.386111111111111
4820,,,13.38888888888889
4821,,,13.391666666666667
4822,,,13.394444444444444
4823,,,13.397222222222222
4824,,,13.4
4825,,,13.402777777777779
4826,,,13.405555555555555
4827,,,13.408333333333333
4828,,,13.411111111111111
4829,,,13.41388888888889
4830,,,13.416666666666666
4831,,,13.419444444444444
4832,,,13.422222222222222
4833,,,13.425
4834,,,13.427777777777777
4835,,,13.430555555555555
4836,,,13.433333333333334
4837,,,13.436111111111112
4838,,,13.438888888888888
4839,,,13.441666666666666
4840,,,13.444444444444445
4841,,,13.447222222222223
4842,,,13.45
4843,,,13.452777777777778
4844,,,13.455555555555556
4845,,,13.458333333333334
4846,,,13.46111111111111
4847,,,13.463888888888889
4848,,,13.466666666666667
4849,,,13.469444444444445
4850,,,13.472222222222221
4851,,,13.475
4852,,,13.477777777777778
4853,,,13.480555555555556
4854,,,13.483333333333333
4855,,,13.48611111111111
4856,,,13.488888888888889
4857,,,13.491666666666667
4858,,,13.494444444444444
4859,,,13.497222222222222
4860,,,13.5
4861,,,13.502777777777778
4862,,,13.505555555555556
4863,,,13.508333333333333
4864,,,13.511111111111111
4865,,,13.51388888888889
4866,,,13.516666666666667
4867,,,13.519444444444444
4868,,,13.522222222222222
4869,,,13.525
4870,,,13.527777777777779
4871,,,13.530555555555555
4872,,,13.533333333333333
4873,,,13.536111111111111
4874,,,13.53888888888889
4875,,,13.541666666666666
4876,,,13.544444444444444
4877,,,13.547222222222222
4878,,,13.55
4879,,,13.552777777777777
4880,,,13.555555555555555
4881,,,13.558333333333334
4882,,,13.561111111111112
4883,,,13.563888888888888
4884,,,13.566666666666666
4885,,,13.569444444444445
4886,,,13.572222222222223
4887,,,13.575
4888,,,13.577777777777778
4889,,,13.580555555555556
4890,,,13.583333333333334
4891,,,13.58611111111111
4892,,,13.588888888888889
4893,,,13.591666666666667
4894,,,13.594444444444445
4895,,,13.597222222222221
4896,,,13.6
4897,,,13.602777777777778
4898,,,13.605555555555556
4899,,,13.608333333333333
4900,,,13.61111111111111
4901,,,13.613888888888889
4902,,,13.616666666666667
4903,,,13.619444444444444
4904,,,13.622222222222222
4905,,,13.625
4906,,,13.627777777777778
4907,,,13.630555555555556
4908,,,13.633333333333333
4909,,,13.636111111111111
4910,,,13.63888888888889
4911,,,13.641666666666667
4912,,,13.644444444444444
4913,,,13.647222222222222
4914,,,13.65
4915,,,13.652777777777779
4916,,,13.655555555555555
4917,,,13.658333333333333
4918,,,13.661111111111111
4919,,,13.66388888888889
4920,,,13.666666666666666
4921,,,13.669444444444444
4922,,,13.672222222222222
4923,,,13.675
4924,,,13.677777777777777
4925,,,13.680555555555555
4926,,,13.683333333333334
4927,,,13.686111111111112
4928,,,13.688888888888888
4929,,,13.691666666666666
4930,,,13.694444444444445
4931,,,13.697222222222223
4932,,,13.7
4933,,,13.702777777777778
4934,,,13.705555555555556
4935,,,13.708333333333334
4936,,,13.71111111111111
4937,,,13.713888888888889
4938,,,13.716666666666667
4939,,,13.719444444444445
4940,,,13.722222222222221
4941,,,13.725
4942,,,13.727777777777778
4943,,,13.730555555555556
4944,,,13.733333333333333
4945,,,13.73611111111111
4946,,,13.738888888888889
4947,,,13.741666666666667
4948,,,13.744444444444444
4949,,,13.747222222222222
4950,,,13.75
4951,,,13.752777777777778
4952,,,13.755555555555556
4953,,,13.758333333333333
4954,,,13.761111111111111
4955,,,13.76388888888889
4956,,,13.766666666666667
4957,,,13.769444444444444
4958,,,13.772222222222222
4959,,,13.775
4960,,,13.777777777777779
4961,,,13.780555555555555
4962,,,13.783333333333333
4963,,,13.786111111111111
4964,,,13.78888888888889
4965,,,13.791666666666666
4966,,,13.794444444444444
4967,,,13.797222222222222
4968,,,13.8
4969,,,13.802777777777777
4970,,,13.805555555555555
4971,,,13.808333333333334
4972,,,13.811111111111112
4973,,,13.813888888888888
4974,,,13.816666666666666
4975,,,13.819444444444445
4976,,,13.822222222222223
4977,,,13.825
4978,,,13.827777777777778
4979,,,13.830555555555556
4980,,,13.833333333333334
4981,,,13.83611111111111
4982,,,13.838888888888889
4983,,,13.841666666666667
4984,,,13.844444444444445
4985,,,13.847222222222221
4986,,,13.85
4987,,,13.852777777777778
4988,,,13.855555555555556
4989,,,13.858333333333333
4990,,,13.86111111111111
4991,,,13.863888888888889
4992,,,13.866666666666667
4993,,,13.869444444444444
4994,,,13.872222222222222
4995,,,13.875
4996,,,13.877777777777778
4997,,,13.880555555555556
4998,,,13.883333333333333
4999,,,13.886111111111111
5000,,,13.88888888888889
5001,,,13.891666666666667
5002,,,13.894444444444444
5003,,,13.897222222222222
5004,,,13.9
5005,,,13.902777777777779
5006,,,13.905555555555555
5007,,,13.908333333333333
5008,,,13.911111111111111
5009,,,13.91388888888889
5010,,,13.916666666666666
5011,,,13.919444444444444
5012,,,13.922222222222222
5013,,,13.925
5014,,,13.927777777777777
5015,,,13.930555555555555
5016,,,13.933333333333334
5017,,,13.936111111111112
5018,,,13.938888888888888
5019,,,13.941666666666666
5020,,,13.944444444444445
5021,,,13.947222222222223
5022,,,13.95
5023,,,13.952777777777778
5024,,,13.955555555555556
5025,,,13.958333333333334
5026,,,13.96111111111111
5027,,,13.963888888888889
